##YUNITS=%T
293.180032 10.543270 
300.895296 22.932548 
308.610560 75.994923 
316.325824 53.289548 
324.041088 54.483714 
331.756352 87.463711 
339.471616 21.866640 
347.186880 171.307194 
354.902144 9.726289 
362.617408 17.006211 
370.332672 15.628479 
378.047936 3.461645 
385.763200 10.267746 
393.478464 15.499263 
401.193728 8.689979 
408.908992 10.301763 
416.624256 9.757387 
424.339520 6.613092 
432.054784 6.137538 
439.770048 4.808349 
447.485312 4.222578 
455.200576 3.287464 
462.915840 2.007604 
470.631104 2.626274 
478.346368 3.019291 
486.061632 3.331343 
493.776896 3.569856 
501.492160 4.630659 
509.207424 4.073704 
516.922688 4.531635 
524.637952 5.683504 
532.353216 5.827944 
540.068480 5.953317 
547.783744 5.716272 
555.499008 5.485199 
563.214272 6.001645 
570.929536 5.817678 
578.644800 6.622742 
586.360064 6.815146 
594.075328 7.389098 
601.790592 7.809039 
609.505856 8.045400 
617.221120 8.465297 
624.936384 8.965090 
632.651648 8.925431 
640.366912 9.076492 
648.082176 9.138472 
655.797440 9.145184 
663.512704 8.990201 
671.227968 8.794050 
678.943232 8.232519 
686.658496 7.854751 
694.373760 7.286747 
702.089024 8.033874 
709.804288 8.177324 
717.519552 8.108205 
725.234816 8.090974 
732.950080 8.108536 
740.665344 8.011395 
748.380608 8.211245 
756.095872 8.117736 
763.811136 8.065404 
771.526400 7.232430 
779.241664 6.396468 
786.956928 7.272524 
794.672192 6.371920 
802.387456 6.835324 
810.102720 9.409612 
817.817984 10.337832 
825.533248 10.824776 
833.248512 10.654588 
840.963776 10.700057 
848.679040 10.425482 
856.394304 10.287635 
864.109568 9.810577 
871.824832 9.685630 
879.540096 9.316573 
887.255360 8.979604 
894.970624 8.739806 
902.685888 8.534526 
910.401152 8.169175 
918.116416 7.913767 
925.831680 7.406137 
933.546944 6.994904 
941.262208 6.341422 
948.977472 5.773487 
956.692736 5.078410 
964.408000 4.546486 
972.123264 3.997166 
979.838528 3.596256 
987.553792 3.211510 
995.269056 2.966574 
1002.984320 2.721734 
1010.699584 2.565567 
1018.414848 2.310238 
1026.130112 2.290109 
1033.845376 2.013282 
1041.560640 2.023332 
1049.275904 1.838963 
1056.991168 1.720454 
1064.706432 1.587755 
1072.421696 1.584869 
1080.136960 1.297233 
1087.852224 1.280584 
1095.567488 1.152271 
1103.282752 1.369236 
1110.998016 1.497990 
1118.713280 1.897018 
1126.428544 2.225699 
1134.143808 2.740301 
1141.859072 3.026531 
1149.574336 3.587956 
1157.289600 3.954505 
1165.004864 4.017685 
1172.720128 4.518470 
1180.435392 5.342736 
1188.150656 6.139542 
1195.865920 7.138346 
1203.581184 8.079552 
1211.296448 9.183006 
1219.011712 10.163107 
1226.726976 11.151122 
1234.442240 11.885909 
1242.157504 12.677712 
1249.872768 13.384625 
1257.588032 14.148221 
1265.303296 14.705045 
1273.018560 15.259460 
1280.733824 15.689268 
1288.449088 16.126340 
1296.164352 16.471623 
1303.879616 16.894705 
1311.594880 17.096085 
1319.310144 17.336585 
1327.025408 17.645344 
1334.740672 17.944438 
1342.455936 17.853101 
1350.171200 18.360270 
1357.886464 18.389282 
1365.601728 18.522556 
1373.316992 18.618836 
1381.032256 18.823563 
1388.747520 19.068181 
1396.462784 19.008054 
1404.178048 19.041833 
1411.893312 19.716746 
1419.608576 19.234108 
1427.323840 19.632999 
1435.039104 19.791183 
1442.754368 19.665360 
1450.469632 20.645586 
1458.184896 19.301998 
1465.900160 20.453626 
1473.615424 19.811765 
1481.330688 20.457535 
1489.045952 20.519556 
1496.761216 20.367907 
1504.476480 20.871913 
1512.191744 19.871345 
1519.907008 20.908577 
1527.622272 19.675375 
1535.337536 22.079404 
1543.052800 18.726818 
1550.768064 21.800271 
1558.483328 19.566767 
1566.198592 20.996847 
1573.913856 20.667510 
1581.629120 20.774495 
1589.344384 20.791226 
1597.059648 20.525186 
1604.774912 19.836560 
1612.490176 19.969954 
1620.205440 18.450747 
1627.920704 19.302296 
1635.635968 18.293220 
1643.351232 19.738716 
1651.066496 18.583721 
1658.781760 19.860096 
1666.497024 20.690401 
1674.212288 20.769598 
1681.927552 20.852673 
1689.642816 21.176700 
1697.358080 21.982021 
1705.073344 20.761338 
1712.788608 22.751290 
1720.503872 21.002703 
1728.219136 23.195523 
1735.934400 21.415665 
1743.649664 22.611854 
1751.364928 21.893674 
1759.080192 22.733112 
1766.795456 22.802136 
1774.510720 22.242450 
1782.225984 22.613956 
1789.941248 22.925082 
1797.656512 22.149974 
1805.371776 22.888747 
1813.087040 22.537627 
1820.802304 23.354899 
1828.517568 22.455131 
1836.232832 23.181229 
1843.948096 22.842710 
1851.663360 22.734414 
1859.378624 23.143639 
1867.093888 22.600007 
1874.809152 22.442494 
1882.524416 22.988820 
1890.239680 22.560828 
1897.954944 22.869863 
1905.670208 22.918877 
1913.385472 23.168073 
1921.100736 22.910664 
1928.816000 23.157457 
1936.531264 23.332250 
1944.246528 23.100961 
1951.961792 23.226243 
1959.677056 23.351262 
1967.392320 23.184131 
1975.107584 23.267268 
1982.822848 23.315319 
1990.538112 23.233884 
1998.253376 23.162166 
2005.968640 23.334313 
2013.683904 23.245767 
2021.399168 23.303168 
2029.114432 23.286370 
2036.829696 23.387780 
2044.544960 23.293256 
2052.260224 23.417485 
2059.975488 23.332665 
2067.690752 23.371025 
2075.406016 23.326300 
2083.121280 23.406715 
2090.836544 23.315422 
2098.551808 23.411929 
2106.267072 23.316296 
2113.982336 23.412994 
2121.697600 23.310720 
2129.412864 23.418901 
2137.128128 23.327048 
2144.843392 23.442830 
2152.558656 23.346373 
2160.273920 23.476959 
2167.989184 23.385398 
2175.704448 23.499589 
2183.419712 23.453115 
2191.134976 23.521822 
2198.850240 23.494914 
2206.565504 23.523476 
2214.280768 23.537693 
2221.996032 23.509083 
2229.711296 23.581726 
2237.426560 23.495396 
2245.141824 23.595779 
2252.857088 23.492134 
2260.572352 23.569885 
2268.287616 23.460381 
2276.002880 23.456295 
2283.718144 23.540169 
2291.433408 23.430919 
2299.148672 23.425589 
2306.863936 23.143763 
2314.579200 23.296580 
2322.294464 22.569755 
2330.009728 22.611397 
2337.724992 21.457260 
2345.440256 21.626048 
2353.155520 23.627706 
2360.870784 20.521757 
2368.586048 20.471824 
2376.301312 20.940373 
2384.016576 22.836947 
2391.731840 23.248759 
2399.447104 23.425678 
2407.162368 23.244859 
2414.877632 23.432603 
2422.592896 23.314096 
2430.308160 23.357119 
2438.023424 23.422642 
2445.738688 23.278786 
2453.453952 23.511608 
2461.169216 23.261427 
2468.884480 23.493531 
2476.599744 23.309480 
2484.315008 23.432032 
2492.030272 23.394726 
2499.745536 23.322638 
2507.460800 23.464088 
2515.176064 23.259864 
2522.891328 23.443700 
2530.606592 23.291621 
2538.321856 23.327431 
2546.037120 23.327719 
2553.752384 23.200912 
2561.467648 23.367536 
2569.182912 23.153800 
2576.898176 23.313425 
2584.613440 23.172899 
2592.328704 23.203775 
2600.043968 23.219981 
2607.759232 23.117755 
2615.474496 23.247504 
2623.189760 23.122220 
2630.905024 23.173774 
2638.620288 23.156028 
2646.335552 23.111129 
2654.050816 23.199179 
2661.766080 23.076461 
2669.481344 23.196413 
2677.196608 23.090946 
2684.911872 23.138392 
2692.627136 23.132914 
2700.342400 23.083185 
2708.057664 23.132287 
2715.772928 23.077484 
2723.488192 23.074894 
2731.203456 23.057568 
2738.918720 23.005075 
2746.633984 23.040321 
2754.349248 22.960850 
2762.064512 22.984976 
2769.779776 22.929617 
2777.495040 22.920700 
2785.210304 22.863759 
2792.925568 22.852607 
2800.640832 22.795573 
2808.356096 22.779115 
2816.071360 22.752288 
2823.786624 22.706151 
2831.501888 22.658802 
2839.217152 22.661258 
2846.932416 22.566526 
2854.647680 22.359201 
2862.362944 22.357616 
2870.078208 22.439604 
2877.793472 22.334130 
2885.508736 22.415352 
2893.224000 22.358333 
2900.939264 22.273160 
2908.654528 22.325897 
2916.369792 22.114280 
2924.085056 21.936130 
2931.800320 21.934961 
2939.515584 21.953757 
2947.230848 22.181031 
2954.946112 21.963114 
2962.661376 22.023276 
2970.376640 21.974151 
2978.091904 21.947897 
2985.807168 22.065151 
2993.522432 21.855729 
3001.237696 21.944915 
3008.952960 21.858814 
3016.668224 21.675411 
3024.383488 21.872290 
3032.098752 21.516462 
3039.814016 21.638020 
3047.529280 21.538947 
3055.244544 21.388087 
3062.959808 21.444435 
3070.675072 21.197454 
3078.390336 21.215134 
3086.105600 21.157069 
3093.820864 20.974594 
3101.536128 21.049553 
3109.251392 20.809014 
3116.966656 20.774230 
3124.681920 20.746284 
3132.397184 20.492376 
3140.112448 20.607230 
3147.827712 20.339841 
3155.542976 20.287890 
3163.258240 20.272199 
3170.973504 19.952427 
3178.688768 20.017279 
3186.404032 19.714167 
3194.119296 19.588372 
3201.834560 19.527580 
3209.549824 19.176035 
3217.265088 19.163113 
3224.980352 18.915907 
3232.695616 18.675089 
3240.410880 18.712089 
3248.126144 18.301613 
3255.841408 18.347621 
3263.556672 18.152267 
3271.271936 17.930112 
3278.987200 17.964094 
3286.702464 17.639153 
3294.417728 17.538133 
3302.132992 17.424788 
3309.848256 17.011711 
3317.563520 17.000516 
3325.278784 16.570331 
3332.994048 16.303054 
3340.709312 16.057469 
3348.424576 15.571742 
3356.139840 15.401939 
3363.855104 14.900996 
3371.570368 14.552420 
3379.285632 14.388631 
3387.000896 13.938785 
3394.716160 13.807928 
3402.431424 13.602866 
3410.146688 13.390463 
3417.861952 13.401787 
3425.577216 13.116545 
3433.292480 13.194965 
3441.007744 13.208031 
3448.723008 13.066658 
3456.438272 13.360651 
3464.153536 13.350376 
3471.868800 13.491639 
3479.584064 13.764309 
3487.299328 13.662536 
3495.014592 14.137629 
3502.729856 14.102073 
3510.445120 14.245504 
3518.160384 14.760253 
3525.875648 14.625230 
3533.590912 14.907384 
3541.306176 15.604596 
3549.021440 15.033001 
3556.736704 16.372571 
3564.451968 15.855450 
3572.167232 16.072177 
3579.882496 17.456248 
3587.597760 16.958841 
3595.313024 17.341154 
3603.028288 18.496134 
3610.743552 18.221259 
3618.458816 18.857091 
3626.174080 19.257543 
3633.889344 18.698125 
3641.604608 21.647351 
3649.319872 19.057725 
3657.035136 19.845237 
3664.750400 22.793314 
3672.465664 19.619310 
3680.180928 21.088201 
3687.896192 21.372096 
3695.611456 20.650289 
3703.326720 22.657568 
3711.041984 20.527464 
3718.757248 21.881120 
3726.472512 22.052891 
3734.187776 21.338947 
3741.903040 21.829812 
3749.618304 20.114564 
3757.333568 20.726039 
3765.048832 21.762619 
3772.764096 21.118593 
3780.479360 21.856364 
3788.194624 21.270033 
3795.909888 23.375871 
3803.625152 19.370728 
3811.340416 23.136626 
3819.055680 19.735524 
3826.770944 22.137167 
3834.486208 21.020478 
3842.201472 21.131683 
3849.916736 22.115784 
3857.632000 20.362296 
3865.347264 21.870772 
3873.062528 20.490742 
3880.777792 21.819521 
3888.493056 20.682215 
3896.208320 22.395709 
3903.923584 19.760238 
3911.638848 21.978495 
3919.354112 21.198947 
3927.069376 21.333882 
3934.784640 21.313265 
3942.499904 21.559236 
3950.215168 21.125263 
3957.930432 21.543999 
3965.645696 21.339632 
3973.360960 21.549258 
3981.076224 21.373406 
3988.791488 21.526989 
3996.506752 21.402738 
4004.222016 21.458632 