10.00000 229.000
10.02046 218.000
10.04092 237.000
10.06138 227.000
10.08183 216.000
10.10229 238.000
10.12275 251.000
10.14321 231.000
10.16367 239.000
10.18413 218.000
10.20459 240.000
10.22505 237.000
10.24550 263.000
10.26596 220.000
10.28642 251.000
10.30688 238.000
10.32734 258.000
10.34780 223.000
10.36826 224.000
10.38871 227.000
10.40917 215.000
10.42963 238.000
10.45009 216.000
10.47055 214.000
10.49101 232.000
10.51147 216.000
10.53193 242.000
10.55238 243.000
10.57284 216.000
10.59330 207.000
10.61376 227.000
10.63422 269.000
10.65468 247.000
10.67514 237.000
10.69559 204.000
10.71605 213.000
10.73651 255.000
10.75697 223.000
10.77743 216.000
10.79789 224.000
10.81835 251.000
10.83881 242.000
10.85926 243.000
10.87972 234.000
10.90018 204.000
10.92064 218.000
10.94110 216.000
10.96156 216.000
10.98202 265.000
11.00247 220.000
11.02293 219.000
11.04339 221.000
11.06385 230.000
11.08431 213.000
11.10477 225.000
11.12523 249.000
11.14568 250.000
11.16614 220.000
11.18660 201.000
11.20706 218.000
11.22752 233.000
11.24798 231.000
11.26844 217.000
11.28890 222.000
11.30935 268.000
11.32981 239.000
11.35027 226.000
11.37073 216.000
11.39119 244.000
11.41165 258.000
11.43211 236.000
11.45256 234.000
11.47302 238.000
11.49348 236.000
11.51394 250.000
11.53440 228.000
11.55486 249.000
11.57532 214.000
11.59578 230.000
11.61623 233.000
11.63669 230.000
11.65715 249.000
11.67761 223.000
11.69807 259.000
11.71853 210.000
11.73899 232.000
11.75944 237.000
11.77990 229.000
11.80036 229.000
11.82082 249.000
11.84128 237.000
11.86174 231.000
11.88220 255.000
11.90266 229.000
11.92311 226.000
11.94357 247.000
11.96403 195.000
11.98449 239.000
12.00495 227.000
12.02541 238.000
12.04587 227.000
12.06632 225.000
12.08678 248.000
12.10724 221.000
12.12770 244.000
12.14816 220.000
12.16862 245.000
12.18908 229.000
12.20954 223.000
12.22999 220.000
12.25045 208.000
12.27091 214.000
12.29137 215.000
12.31183 271.000
12.33229 223.000
12.35275 257.000
12.37320 244.000
12.39366 262.000
12.41412 226.000
12.43458 266.000
12.45504 249.000
12.47550 209.000
12.49596 243.000
12.51642 239.000
12.53687 242.000
12.55733 241.000
12.57779 251.000
12.59825 262.000
12.61871 216.000
12.63917 269.000
12.65963 246.000
12.68008 253.000
12.70054 220.000
12.72100 261.000
12.74146 255.000
12.76192 236.000
12.78238 231.000
12.80284 222.000
12.82330 264.000
12.84375 250.000
12.86421 270.000
12.88467 238.000
12.90513 251.000
12.92559 259.000
12.94605 247.000
12.96651 230.000
12.98696 233.000
13.00742 239.000
13.02788 272.000
13.04834 258.000
13.06880 256.000
13.08926 243.000
13.10972 245.000
13.13017 250.000
13.15063 246.000
13.17109 245.000
13.19155 265.000
13.21201 249.000
13.23247 264.000
13.25293 227.000
13.27339 262.000
13.29384 274.000
13.31430 252.000
13.33476 235.000
13.35522 247.000
13.37568 261.000
13.39614 252.000
13.41660 245.000
13.43705 215.000
13.45751 252.000
13.47797 221.000
13.49843 248.000
13.51889 266.000
13.53935 261.000
13.55981 232.000
13.58027 251.000
13.60072 255.000
13.62118 255.000
13.64164 262.000
13.66210 236.000
13.68256 248.000
13.70302 252.000
13.72348 257.000
13.74393 239.000
13.76439 244.000
13.78485 251.000
13.80531 260.000
13.82577 263.000
13.84623 241.000
13.86669 246.000
13.88715 268.000
13.90760 268.000
13.92806 270.000
13.94852 240.000
13.96898 260.000
13.98944 240.000
14.00990 240.000
14.03036 235.000
14.05081 237.000
14.07127 250.000
14.09173 270.000
14.11219 222.000
14.13265 250.000
14.15311 239.000
14.17357 263.000
14.19403 254.000
14.21448 270.000
14.23494 235.000
14.25540 280.000
14.27586 267.000
14.29632 257.000
14.31678 264.000
14.33724 248.000
14.35769 240.000
14.37815 257.000
14.39861 231.000
14.41907 257.000
14.43953 253.000
14.45999 261.000
14.48045 224.000
14.50091 262.000
14.52136 228.000
14.54182 239.000
14.56228 258.000
14.58274 244.000
14.60320 230.000
14.62366 264.000
14.64412 255.000
14.66457 244.000
14.68503 220.000
14.70549 256.000
14.72595 237.000
14.74641 266.000
14.76687 277.000
14.78733 269.000
14.80779 252.000
14.82824 248.000
14.84870 248.000
14.86916 240.000
14.88962 246.000
14.91008 283.000
14.93054 264.000
14.95100 294.000
14.97145 245.000
14.99191 259.000
15.01237 247.000
15.03283 241.000
15.05329 246.000
15.07375 259.000
15.09421 269.000
15.11467 254.000
15.13512 271.000
15.15558 271.000
15.17604 256.000
15.19650 245.000
15.21696 254.000
15.23742 254.000
15.25788 264.000
15.27833 261.000
15.29879 272.000
15.31925 266.000
15.33971 266.000
15.36017 264.000
15.38063 250.000
15.40109 267.000
15.42154 274.000
15.44200 274.000
15.46246 273.000
15.48292 228.000
15.50338 265.000
15.52384 235.000
15.54430 255.000
15.56476 259.000
15.58521 260.000
15.60567 265.000
15.62613 286.000
15.64659 250.000
15.66705 266.000
15.68751 269.000
15.70797 272.000
15.72842 246.000
15.74888 297.000
15.76934 259.000
15.78980 262.000
15.81026 256.000
15.83072 264.000
15.85118 288.000
15.87164 267.000
15.89209 292.000
15.91255 255.000
15.93301 255.000
15.95347 287.000
15.97393 256.000
15.99439 276.000
16.01485 271.000
16.03530 272.000
16.05576 275.000
16.07622 300.000
16.09668 274.000
16.11714 268.000
16.13760 299.000
16.15806 310.000
16.17852 295.000
16.19897 309.000
16.21943 285.000
16.23989 324.000
16.26035 336.000
16.28081 309.000
16.30127 319.000
16.32173 340.000
16.34218 350.000
16.36264 377.000
16.38310 335.000
16.40356 359.000
16.42402 368.000
16.44448 367.000
16.46494 339.000
16.48540 338.000
16.50585 345.000
16.52631 344.000
16.54677 339.000
16.56723 301.000
16.58769 284.000
16.60815 303.000
16.62861 283.000
16.64906 312.000
16.66952 238.000
16.68998 303.000
16.71044 291.000
16.73090 295.000
16.75136 286.000
16.77182 310.000
16.79228 250.000
16.81273 275.000
16.83319 277.000
16.85365 304.000
16.87411 267.000
16.89457 272.000
16.91503 241.000
16.93549 281.000
16.95594 264.000
16.97640 252.000
16.99686 271.000
17.01732 249.000
17.03778 269.000
17.05824 250.000
17.07870 258.000
17.09916 269.000
17.11961 270.000
17.14007 253.000
17.16053 252.000
17.18099 280.000
17.20145 262.000
17.22191 268.000
17.24237 277.000
17.26282 284.000
17.28328 285.000
17.30374 265.000
17.32420 302.000
17.34466 246.000
17.36512 268.000
17.38558 272.000
17.40603 282.000
17.42649 262.000
17.44695 265.000
17.46741 270.000
17.48787 266.000
17.50833 265.000
17.52879 256.000
17.54925 285.000
17.56970 258.000
17.59016 287.000
17.61062 275.000
17.63108 313.000
17.65154 251.000
17.67200 254.000
17.69246 257.000
17.71291 293.000
17.73337 277.000
17.75383 299.000
17.77429 277.000
17.79475 298.000
17.81521 272.000
17.83567 257.000
17.85613 280.000
17.87658 318.000
17.89704 310.000
17.91750 283.000
17.93796 275.000
17.95842 311.000
17.97888 271.000
17.99934 284.000
18.01979 306.000
18.04025 311.000
18.06071 310.000
18.08117 293.000
18.10163 289.000
18.12209 284.000
18.14255 290.000
18.16301 298.000
18.18346 295.000
18.20392 284.000
18.22438 298.000
18.24484 286.000
18.26530 285.000
18.28576 289.000
18.30622 316.000
18.32667 292.000
18.34713 278.000
18.36759 319.000
18.38805 289.000
18.40851 289.000
18.42897 296.000
18.44943 292.000
18.46989 307.000
18.49034 302.000
18.51080 307.000
18.53126 315.000
18.55172 306.000
18.57218 292.000
18.59264 289.000
18.61310 293.000
18.63355 295.000
18.65401 284.000
18.67447 285.000
18.69493 325.000
18.71539 349.000
18.73585 328.000
18.75631 339.000
18.77677 347.000
18.79722 315.000
18.81768 360.000
18.83814 343.000
18.85860 332.000
18.87906 314.000
18.89952 373.000
18.91998 370.000
18.94043 316.000
18.96089 338.000
18.98135 344.000
19.00181 346.000
19.02227 347.000
19.04273 301.000
19.06319 340.000
19.08365 320.000
19.10410 334.000
19.12456 324.000
19.14502 332.000
19.16548 326.000
19.18594 315.000
19.20640 337.000
19.22686 315.000
19.24731 324.000
19.26777 322.000
19.28823 346.000
19.30869 319.000
19.32915 321.000
19.34961 308.000
19.37007 334.000
19.39052 319.000
19.41098 336.000
19.43144 314.000
19.45190 327.000
19.47236 335.000
19.49282 334.000
19.51328 333.000
19.53374 342.000
19.55419 371.000
19.57465 371.000
19.59511 356.000
19.61557 336.000
19.63603 400.000
19.65649 399.000
19.67695 417.000
19.69740 384.000
19.71786 423.000
19.73832 366.000
19.75878 387.000
19.77924 441.000
19.79970 449.000
19.82016 405.000
19.84062 419.000
19.86107 410.000
19.88153 398.000
19.90199 399.000
19.92245 405.000
19.94291 361.000
19.96337 380.000
19.98383 382.000
20.00428 401.000
20.02474 353.000
20.04520 332.000
20.06566 336.000
20.08612 371.000
20.10658 377.000
20.12704 362.000
20.14750 397.000
20.16795 354.000
20.18841 400.000
20.20887 348.000
20.22933 349.000
20.24979 387.000
20.27025 355.000
20.29071 370.000
20.31116 379.000
20.33162 372.000
20.35208 381.000
20.37254 403.000
20.39300 353.000
20.41346 370.000
20.43392 395.000
20.45438 358.000
20.47483 364.000
20.49529 379.000
20.51575 382.000
20.53621 453.000
20.55667 383.000
20.57713 377.000
20.59759 421.000
20.61804 445.000
20.63850 475.000
20.65896 467.000
20.67942 595.000
20.69988 634.000
20.72034 854.000
20.74080 1041.000
20.76126 1542.000
20.78171 1936.000
20.80217 2435.000
20.82263 2777.000
20.84309 2894.000
20.86355 2718.000
20.88401 2010.000
20.90447 1434.000
20.92492 1017.000
20.94538 686.000
20.96584 517.000
20.98630 471.000
21.00676 416.000
21.02722 435.000
21.04768 394.000
21.06814 404.000
21.08859 400.000
21.10905 358.000
21.12951 398.000
21.14997 370.000
21.17043 370.000
21.19089 354.000
21.21135 368.000
21.23180 396.000
21.25226 374.000
21.27272 401.000
21.29318 359.000
21.31364 333.000
21.33410 377.000
21.35456 354.000
21.37501 374.000
21.39547 352.000
21.41593 378.000
21.43639 394.000
21.45685 366.000
21.47731 366.000
21.49777 381.000
21.51823 382.000
21.53868 361.000
21.55914 383.000
21.57960 399.000
21.60006 352.000
21.62052 382.000
21.64098 354.000
21.66144 370.000
21.68189 397.000
21.70235 424.000
21.72281 384.000
21.74327 412.000
21.76373 392.000
21.78419 365.000
21.80465 401.000
21.82511 383.000
21.84556 416.000
21.86602 378.000
21.88648 394.000
21.90694 427.000
21.92740 392.000
21.94786 403.000
21.96832 418.000
21.98877 405.000
22.00923 388.000
22.02969 429.000
22.05015 383.000
22.07061 418.000
22.09107 396.000
22.11153 402.000
22.13199 386.000
22.15244 369.000
22.17290 373.000
22.19336 413.000
22.21382 389.000
22.23428 376.000
22.25474 377.000
22.27520 347.000
22.29565 366.000
22.31611 396.000
22.33657 417.000
22.35703 398.000
22.37749 414.000
22.39795 397.000
22.41841 363.000
22.43887 372.000
22.45932 395.000
22.47978 391.000
22.50024 377.000
22.52070 384.000
22.54116 381.000
22.56162 397.000
22.58208 348.000
22.60253 399.000
22.62299 380.000
22.64345 398.000
22.66391 402.000
22.68437 366.000
22.70483 364.000
22.72529 402.000
22.74575 375.000
22.76620 388.000
22.78666 401.000
22.80712 378.000
22.82758 425.000
22.84804 388.000
22.86850 413.000
22.88896 371.000
22.90941 395.000
22.92987 353.000
22.95033 383.000
22.97079 387.000
22.99125 385.000
23.01171 393.000
23.03217 391.000
23.05263 369.000
23.07308 391.000
23.09354 415.000
23.11400 396.000
23.13446 405.000
23.15492 414.000
23.17538 381.000
23.19584 379.000
23.21629 392.000
23.23675 394.000
23.25721 364.000
23.27767 372.000
23.29813 400.000
23.31859 389.000
23.33905 424.000
23.35950 411.000
23.37996 389.000
23.40042 433.000
23.42088 407.000
23.44134 412.000
23.46180 420.000
23.48226 395.000
23.50272 403.000
23.52317 429.000
23.54363 426.000
23.56409 448.000
23.58455 409.000
23.60501 415.000
23.62547 427.000
23.64593 463.000
23.66638 401.000
23.68684 387.000
23.70730 403.000
23.72776 424.000
23.74822 381.000
23.76868 418.000
23.78914 427.000
23.80960 372.000
23.83005 431.000
23.85051 371.000
23.87097 426.000
23.89143 415.000
23.91189 475.000
23.93235 442.000
23.95281 473.000
23.97326 469.000
23.99372 539.000
24.01418 526.000
24.03464 536.000
24.05510 507.000
24.07556 515.000
24.09602 514.000
24.11648 544.000
24.13693 522.000
24.15739 504.000
24.17785 534.000
24.19831 497.000
24.21877 487.000
24.23923 460.000
24.25969 421.000
24.28014 407.000
24.30060 400.000
24.32106 424.000
24.34152 443.000
24.36198 457.000
24.38244 378.000
24.40290 405.000
24.42336 426.000
24.44381 415.000
24.46427 381.000
24.48473 420.000
24.50519 393.000
24.52565 382.000
24.54611 427.000
24.56657 385.000
24.58702 384.000
24.60748 425.000
24.62794 405.000
24.64840 410.000
24.66886 399.000
24.68932 413.000
24.70978 398.000
24.73024 376.000
24.75069 390.000
24.77115 370.000
24.79161 433.000
24.81207 384.000
24.83253 396.000
24.85299 400.000
24.87345 349.000
24.89390 411.000
24.91436 426.000
24.93482 444.000
24.95528 444.000
24.97574 452.000
24.99620 421.000
25.01666 435.000
25.03712 416.000
25.05757 403.000
25.07803 410.000
25.09849 482.000
25.11895 450.000
25.13941 495.000
25.15987 513.000
25.18033 579.000
25.20078 562.000
25.22124 604.000
25.24170 654.000
25.26216 728.000
25.28262 778.000
25.30308 744.000
25.32354 769.000
25.34400 695.000
25.36445 696.000
25.38491 640.000
25.40537 566.000
25.42583 499.000
25.44629 518.000
25.46675 570.000
25.48721 564.000
25.50766 570.000
25.52812 500.000
25.54858 515.000
25.56904 507.000
25.58950 497.000
25.60996 564.000
25.63042 561.000
25.65087 558.000
25.67133 566.000
25.69179 570.000
25.71225 645.000
25.73271 627.000
25.75317 690.000
25.77363 691.000
25.79409 650.000
25.81454 665.000
25.83500 768.000
25.85546 715.000
25.87592 744.000
25.89638 778.000
25.91684 778.000
25.93730 817.000
25.95775 820.000
25.97821 792.000
25.99867 823.000
26.01913 781.000
26.03959 803.000
26.06005 797.000
26.08051 857.000
26.10097 809.000
26.12142 874.000
26.14188 868.000
26.16234 886.000
26.18280 907.000
26.20326 878.000
26.22372 902.000
26.24418 851.000
26.26463 883.000
26.28509 884.000
26.30555 877.000
26.32601 883.000
26.34647 958.000
26.36693 944.000
26.38739 1005.000
26.40785 1142.000
26.42830 1338.000
26.44876 1591.000
26.46922 2142.000
26.48968 2869.000
26.51014 3991.000
26.53060 5613.000
26.55106 8071.000
26.57151 10932.000
26.59197 13779.000
26.61243 15488.000
26.63289 14633.000
26.65335 12437.000
26.67381 9778.000
26.69427 7441.000
26.71473 5060.000
26.73518 3105.000
26.75564 1840.000
26.77610 1292.000
26.79656 992.000
26.81702 856.000
26.83748 732.000
26.85794 690.000
26.87839 675.000
26.89885 615.000
26.91931 606.000
26.93977 604.000
26.96023 551.000
26.98069 568.000
27.00115 538.000
27.02161 528.000
27.04206 556.000
27.06252 486.000
27.08298 547.000
27.10344 503.000
27.12390 495.000
27.14436 484.000
27.16482 469.000
27.18527 474.000
27.20573 485.000
27.22619 487.000
27.24665 480.000
27.26711 492.000
27.28757 481.000
27.30803 428.000
27.32849 543.000
27.34894 511.000
27.36940 481.000
27.38986 541.000
27.41032 568.000
27.43078 575.000
27.45124 516.000
27.47170 538.000
27.49215 526.000
27.51261 509.000
27.53307 512.000
27.55353 537.000
27.57399 484.000
27.59445 524.000
27.61491 487.000
27.63536 479.000
27.65582 481.000
27.67628 482.000
27.69674 505.000
27.71720 516.000
27.73766 459.000
27.75812 484.000
27.77858 498.000
27.79903 506.000
27.81949 483.000
27.83995 476.000
27.86041 493.000
27.88087 479.000
27.90133 457.000
27.92179 508.000
27.94224 509.000
27.96270 515.000
27.98316 515.000
28.00362 498.000
28.02408 473.000
28.04454 479.000
28.06500 451.000
28.08546 442.000
28.10591 453.000
28.12637 418.000
28.14683 451.000
28.16729 415.000
28.18775 451.000
28.20821 429.000
28.22867 450.000
28.24912 421.000
28.26958 405.000
28.29004 439.000
28.31050 438.000
28.33096 416.000
28.35142 404.000
28.37188 382.000
28.39234 387.000
28.41279 396.000
28.43325 399.000
28.45371 384.000
28.47417 419.000
28.49463 383.000
28.51509 372.000
28.53555 391.000
28.55600 364.000
28.57646 357.000
28.59692 354.000
28.61738 387.000
28.63784 348.000
28.65830 392.000
28.67876 364.000
28.69922 380.000
28.71967 377.000
28.74013 395.000
28.76059 393.000
28.78105 341.000
28.80151 391.000
28.82197 344.000
28.84243 393.000
28.86288 399.000
28.88334 388.000
28.90380 384.000
28.92426 373.000
28.94472 359.000
28.96518 375.000
28.98564 371.000
29.00610 414.000
29.02655 372.000
29.04701 342.000
29.06747 368.000
29.08793 346.000
29.10839 330.000
29.12885 368.000
29.14931 393.000
29.16976 345.000
29.19022 389.000
29.21068 355.000
29.23114 370.000
29.25160 344.000
29.27206 359.000
29.29252 354.000
29.31298 367.000
29.33343 389.000
29.35389 375.000
29.37435 352.000
29.39481 362.000
29.41527 367.000
29.43573 384.000
29.45619 358.000
29.47664 422.000
29.49710 385.000
29.51756 411.000
29.53802 376.000
29.55848 387.000
29.57894 413.000
29.59940 392.000
29.61985 413.000
29.64031 416.000
29.66077 391.000
29.68123 407.000
29.70169 442.000
29.72215 430.000
29.74261 419.000
29.76307 462.000
29.78352 457.000
29.80398 453.000
29.82444 496.000
29.84490 462.000
29.86536 452.000
29.88582 484.000
29.90628 439.000
29.92673 416.000
29.94719 427.000
29.96765 409.000
29.98811 437.000
30.00857 427.000
30.02903 415.000
30.04949 396.000
30.06995 416.000
30.09040 402.000
30.11086 373.000
30.13132 395.000
30.15178 427.000
30.17224 433.000
30.19270 420.000
30.21316 387.000
30.23361 404.000
30.25407 448.000
30.27453 450.000
30.29499 478.000
30.31545 432.000
30.33591 425.000
30.35637 445.000
30.37683 416.000
30.39728 417.000
30.41774 409.000
30.43820 413.000
30.45866 433.000
30.47912 423.000
30.49958 408.000
30.52004 444.000
30.54049 385.000
30.56095 398.000
30.58141 401.000
30.60187 417.000
30.62233 392.000
30.64279 439.000
30.66325 424.000
30.68371 414.000
30.70416 427.000
30.72462 488.000
30.74508 495.000
30.76554 412.000
30.78600 475.000
30.80646 504.000
30.82692 480.000
30.84737 501.000
30.86783 489.000
30.88829 587.000
30.90875 560.000
30.92921 596.000
30.94967 633.000
30.97013 644.000
30.99059 620.000
31.01104 632.000
31.03150 646.000
31.05196 649.000
31.07242 647.000
31.09288 609.000
31.11334 653.000
31.13380 577.000
31.15425 572.000
31.17471 541.000
31.19517 634.000
31.21563 577.000
31.23609 577.000
31.25655 529.000
31.27701 500.000
31.29747 502.000
31.31792 509.000
31.33838 507.000
31.35884 527.000
31.37930 439.000
31.39976 430.000
31.42022 523.000
31.44068 473.000
31.46113 451.000
31.48159 469.000
31.50205 425.000
31.52251 434.000
31.54297 398.000
31.56343 421.000
31.58389 407.000
31.60434 416.000
31.62480 411.000
31.64526 405.000
31.66572 395.000
31.68618 419.000
31.70664 425.000
31.72710 361.000
31.74756 399.000
31.76801 402.000
31.78847 429.000
31.80893 385.000
31.82939 403.000
31.84985 390.000
31.87031 387.000
31.89077 385.000
31.91122 371.000
31.93168 407.000
31.95214 378.000
31.97260 371.000
31.99306 412.000
32.01352 391.000
32.03398 376.000
32.05444 388.000
32.07489 373.000
32.09535 367.000
32.11581 381.000
32.13627 346.000
32.15673 380.000
32.17719 399.000
32.19765 386.000
32.21810 362.000
32.23856 371.000
32.25902 363.000
32.27948 388.000
32.29994 369.000
32.32040 419.000
32.34086 380.000
32.36132 352.000
32.38177 408.000
32.40223 381.000
32.42269 419.000
32.44315 367.000
32.46361 398.000
32.48407 368.000
32.50453 404.000
32.52498 399.000
32.54544 420.000
32.56590 395.000
32.58636 396.000
32.60682 392.000
32.62728 370.000
32.64774 381.000
32.66820 385.000
32.68865 376.000
32.70911 429.000
32.72957 443.000
32.75003 434.000
32.77049 433.000
32.79095 421.000
32.81141 454.000
32.83186 486.000
32.85232 473.000
32.87278 499.000
32.89324 506.000
32.91370 547.000
32.93416 509.000
32.95462 546.000
32.97508 556.000
32.99553 606.000
33.01599 640.000
33.03645 690.000
33.05691 823.000
33.07737 825.000
33.09783 877.000
33.11829 967.000
33.13874 968.000
33.15920 947.000
33.17966 921.000
33.20012 832.000
33.22058 800.000
33.24104 717.000
33.26150 761.000
33.28196 603.000
33.30241 612.000
33.32287 540.000
33.34333 506.000
33.36379 482.000
33.38425 503.000
33.40471 421.000
33.42517 442.000
33.44562 429.000
33.46608 427.000
33.48654 440.000
33.50700 393.000
33.52746 436.000
33.54792 408.000
33.56838 365.000
33.58884 422.000
33.60929 387.000
33.62975 401.000
33.65021 390.000
33.67067 387.000
33.69113 378.000
33.71159 366.000
33.73205 384.000
33.75250 364.000
33.77296 350.000
33.79342 329.000
33.81388 325.000
33.83434 322.000
33.85480 341.000
33.87526 380.000
33.89571 332.000
33.91617 337.000
33.93663 331.000
33.95709 348.000
33.97755 329.000
33.99801 367.000
34.01847 320.000
34.03893 333.000
34.05938 355.000
34.07984 330.000
34.10030 305.000
34.12076 331.000
34.14122 380.000
34.16168 346.000
34.18214 322.000
34.20259 342.000
34.22305 333.000
34.24351 352.000
34.26397 345.000
34.28443 297.000
34.30489 355.000
34.32535 369.000
34.34581 357.000
34.36626 389.000
34.38672 370.000
34.40718 357.000
34.42764 351.000
34.44810 326.000
34.46856 358.000
34.48902 375.000
34.50947 360.000
34.52993 374.000
34.55039 395.000
34.57085 351.000
34.59131 359.000
34.61177 374.000
34.63223 372.000
34.65269 366.000
34.67314 410.000
34.69360 393.000
34.71406 362.000
34.73452 397.000
34.75498 406.000
34.77544 379.000
34.79590 413.000
34.81635 386.000
34.83681 398.000
34.85727 414.000
34.87773 384.000
34.89819 463.000
34.91865 484.000
34.93911 411.000
34.95957 459.000
34.98002 463.000
35.00048 480.000
35.02094 473.000
35.04140 443.000
35.06186 473.000
35.08232 499.000
35.10278 503.000
35.12323 522.000
35.14369 581.000
35.16415 621.000
35.18461 621.000
35.20507 660.000
35.22553 698.000
35.24599 687.000
35.26645 683.000
35.28690 680.000
35.30736 628.000
35.32782 644.000
35.34828 668.000
35.36874 586.000
35.38920 664.000
35.40966 673.000
35.43011 616.000
35.45057 631.000
35.47103 621.000
35.49149 693.000
35.51195 745.000
35.53241 716.000
35.55287 799.000
35.57333 870.000
35.59378 862.000
35.61424 877.000
35.63470 879.000
35.65516 922.000
35.67562 829.000
35.69608 793.000
35.71654 784.000
35.73699 717.000
35.75745 658.000
35.77791 670.000
35.79837 650.000
35.81883 607.000
35.83929 561.000
35.85975 566.000
35.88020 551.000
35.90066 553.000
35.92112 502.000
35.94158 530.000
35.96204 517.000
35.98250 519.000
36.00296 563.000
36.02342 513.000
36.04387 537.000
36.06433 540.000
36.08479 563.000
36.10525 523.000
36.12571 533.000
36.14617 579.000
36.16663 537.000
36.18708 555.000
36.20754 538.000
36.22800 598.000
36.24846 573.000
36.26892 584.000
36.28938 573.000
36.30984 616.000
36.33030 706.000
36.35075 746.000
36.37121 843.000
36.39167 918.000
36.41213 1003.000
36.43259 1263.000
36.45305 1462.000
36.47351 1662.000
36.49396 1810.000
36.51442 1883.000
36.53488 1731.000
36.55534 1642.000
36.57580 1517.000
36.59626 1302.000
36.61672 1280.000
36.63718 1141.000
36.65763 986.000
36.67809 891.000
36.69855 835.000
36.71901 848.000
36.73947 825.000
36.75993 777.000
36.78039 751.000
36.80084 769.000
36.82130 749.000
36.84176 744.000
36.86222 786.000
36.88268 715.000
36.90314 765.000
36.92360 703.000
36.94406 635.000
36.96451 661.000
36.98497 694.000
37.00543 646.000
37.02589 635.000
37.04635 611.000
37.06681 565.000
37.08727 573.000
37.10772 569.000
37.12818 546.000
37.14864 598.000
37.16910 526.000
37.18956 474.000
37.21002 477.000
37.23048 478.000
37.25094 485.000
37.27139 510.000
37.29185 475.000
37.31231 470.000
37.33277 462.000
37.35323 438.000
37.37369 452.000
37.39415 432.000
37.41460 420.000
37.43506 453.000
37.45552 437.000
37.47598 452.000
37.49644 409.000
37.51690 409.000
37.53736 428.000
37.55782 405.000
37.57827 414.000
37.59873 359.000
37.61919 390.000
37.63965 435.000
37.66011 426.000
37.68057 382.000
37.70103 423.000
37.72148 438.000
37.74194 396.000
37.76240 418.000
37.78286 397.000
37.80332 415.000
37.82378 421.000
37.84424 388.000
37.86469 379.000
37.88515 357.000
37.90561 404.000
37.92607 350.000
37.94653 371.000
37.96699 364.000
37.98745 345.000
38.00791 347.000
38.02836 357.000
38.04882 362.000
38.06928 353.000
38.08974 330.000
38.11020 351.000
38.13066 320.000
38.15112 306.000
38.17157 354.000
38.19203 354.000
38.21249 325.000
38.23295 326.000
38.25341 326.000
38.27387 326.000
38.29433 318.000
38.31479 292.000
38.33524 318.000
38.35570 328.000
38.37616 335.000
38.39662 320.000
38.41708 343.000
38.43754 310.000
38.45800 337.000
38.47845 303.000
38.49891 338.000
38.51937 347.000
38.53983 318.000
38.56029 359.000
38.58075 334.000
38.60121 350.000
38.62167 327.000
38.64212 343.000
38.66258 307.000
38.68304 314.000
38.70350 322.000
38.72396 294.000
38.74442 329.000
38.76488 335.000
38.78533 325.000
38.80579 327.000
38.82625 308.000
38.84671 339.000
38.86717 309.000
38.88763 339.000
38.90809 346.000
38.92855 350.000
38.94900 333.000
38.96946 343.000
38.98992 357.000
39.01038 349.000
39.03084 338.000
39.05130 378.000
39.07176 365.000
39.09221 386.000
39.11267 370.000
39.13313 396.000
39.15359 410.000
39.17405 437.000
39.19451 476.000
39.21497 451.000
39.23543 510.000
39.25588 484.000
39.27634 542.000
39.29680 561.000
39.31726 638.000
39.33772 754.000
39.35818 945.000
39.37864 1124.000
39.39909 1433.000
39.41955 1595.000
39.44001 1608.000
39.46047 1551.000
39.48093 1245.000
39.50139 1108.000
39.52185 1028.000
39.54231 1018.000
39.56276 792.000
39.58322 673.000
39.60368 508.000
39.62414 424.000
39.64460 385.000
39.66506 391.000
39.68552 362.000
39.70597 381.000
39.72643 365.000
39.74689 304.000
39.76735 349.000
39.78781 359.000
39.80827 322.000
39.82873 330.000
39.84918 325.000
39.86964 310.000
39.89010 316.000
39.91056 308.000
39.93102 318.000
39.95148 324.000
39.97194 346.000
39.99240 331.000
40.01285 383.000
40.03331 352.000
40.05377 396.000
40.07423 372.000
40.09469 410.000
40.11515 431.000
40.13561 454.000
40.15606 514.000
40.17652 614.000
40.19698 734.000
40.21744 837.000
40.23790 872.000
40.25836 912.000
40.27882 900.000
40.29928 779.000
40.31973 800.000
40.34019 666.000
40.36065 675.000
40.38111 625.000
40.40157 520.000
40.42203 468.000
40.44249 438.000
40.46294 397.000
40.48340 415.000
40.50386 373.000
40.52432 415.000
40.54478 431.000
40.56524 465.000
40.58570 439.000
40.60616 460.000
40.62661 451.000
40.64707 507.000
40.66753 507.000
40.68799 579.000
40.70845 580.000
40.72891 625.000
40.74937 665.000
40.76982 693.000
40.79028 702.000
40.81074 720.000
40.83120 690.000
40.85166 748.000
40.87212 688.000
40.89258 718.000
40.91304 711.000
40.93349 649.000
40.95395 647.000
40.97441 636.000
40.99487 653.000
41.01533 570.000
41.03579 491.000
41.05625 483.000
41.07670 524.000
41.09716 437.000
41.11762 444.000
41.13808 427.000
41.15854 438.000
41.17900 397.000
41.19946 447.000
41.21992 410.000
41.24037 367.000
41.26083 385.000
41.28129 386.000
41.30175 376.000
41.32221 369.000
41.34267 369.000
41.36313 376.000
41.38358 336.000
41.40404 341.000
41.42450 284.000
41.44496 335.000
41.46542 312.000
41.48588 333.000
41.50634 337.000
41.52680 316.000
41.54725 303.000
41.56771 319.000
41.58817 287.000
41.60863 261.000
41.62909 262.000
41.64955 284.000
41.67001 301.000
41.69046 308.000
41.71092 293.000
41.73138 320.000
41.75184 322.000
41.77230 354.000
41.79276 310.000
41.81322 299.000
41.83367 294.000
41.85413 309.000
41.87459 308.000
41.89505 306.000
41.91551 309.000
41.93597 299.000
41.95643 338.000
41.97689 317.000
41.99734 340.000
42.01780 354.000
42.03826 309.000
42.05872 373.000
42.07918 335.000
42.09964 344.000
42.12010 381.000
42.14055 327.000
42.16101 404.000
42.18147 384.000
42.20193 403.000
42.22239 459.000
42.24285 480.000
42.26331 533.000
42.28377 607.000
42.30422 699.000
42.32468 779.000
42.34514 917.000
42.36560 1101.000
42.38606 1211.000
42.40652 1267.000
42.42698 1197.000
42.44743 1049.000
42.46789 1059.000
42.48835 905.000
42.50881 894.000
42.52927 803.000
42.54973 779.000
42.57019 661.000
42.59065 521.000
42.61110 501.000
42.63156 418.000
42.65202 382.000
42.67248 403.000
42.69294 387.000
42.71340 396.000
42.73386 382.000
42.75431 369.000
42.77477 367.000
42.79523 387.000
42.81569 347.000
42.83615 377.000
42.85661 314.000
42.87707 335.000
42.89753 344.000
42.91798 301.000
42.93844 309.000
42.95890 292.000
42.97936 305.000
42.99982 305.000
43.02028 320.000
43.04074 344.000
43.06119 326.000
43.08165 319.000
43.10211 320.000
43.12257 331.000
43.14303 361.000
43.16349 301.000
43.18395 303.000
43.20441 315.000
43.22486 320.000
43.24532 308.000
43.26578 326.000
43.28624 317.000
43.30670 303.000
43.32716 299.000
43.34762 329.000
43.36807 316.000
43.38853 320.000
43.40899 316.000
43.42945 310.000
43.44991 312.000
43.47037 291.000
43.49083 318.000
43.51129 315.000
43.53174 323.000
43.55220 290.000
43.57266 307.000
43.59312 312.000
43.61358 286.000
43.63404 313.000
43.65450 278.000
43.67495 321.000
43.69541 294.000
43.71587 297.000
43.73633 300.000
43.75679 265.000
43.77725 307.000
43.79771 284.000
43.81817 301.000
43.83862 291.000
43.85908 269.000
43.87954 334.000
43.90000 315.000
43.92046 292.000
43.94092 319.000
43.96138 309.000
43.98183 306.000
44.00229 373.000
44.02275 316.000
44.04321 311.000
44.06367 336.000
44.08413 304.000
44.10459 341.000
44.12504 360.000
44.14550 324.000
44.16596 324.000
44.18642 334.000
44.20688 368.000
44.22734 333.000
44.24780 393.000
44.26826 365.000
44.28871 391.000
44.30917 392.000
44.32963 402.000
44.35009 400.000
44.37055 409.000
44.39101 381.000
44.41147 439.000
44.43192 451.000
44.45238 416.000
44.47284 420.000
44.49330 427.000
44.51376 477.000
44.53422 495.000
44.55468 451.000
44.57514 432.000
44.59559 486.000
44.61605 478.000
44.63651 507.000
44.65697 440.000
44.67743 474.000
44.69789 461.000
44.71835 474.000
44.73880 468.000
44.75926 512.000
44.77972 496.000
44.80018 489.000
44.82064 498.000
44.84110 448.000
44.86156 406.000
44.88202 442.000
44.90247 424.000
44.92293 464.000
44.94339 474.000
44.96385 410.000
44.98431 435.000
45.00477 409.000
45.02523 401.000
45.04568 426.000
45.06614 416.000
45.08660 374.000
45.10706 418.000
45.12752 407.000
45.14798 395.000
45.16844 406.000
45.18890 368.000
45.20935 449.000
45.22981 369.000
45.25027 393.000
45.27073 371.000
45.29119 375.000
45.31165 345.000
45.33211 392.000
45.35256 412.000
45.37302 351.000
45.39348 426.000
45.41394 412.000
45.43440 434.000
45.45486 394.000
45.47532 381.000
45.49578 443.000
45.51623 436.000
45.53669 421.000
45.55715 443.000
45.57761 483.000
45.59807 504.000
45.61853 509.000
45.63899 581.000
45.65944 645.000
45.67990 752.000
45.70036 850.000
45.72082 936.000
45.74128 1035.000
45.76174 998.000
45.78220 929.000
45.80266 820.000
45.82311 782.000
45.84357 696.000
45.86403 652.000
45.88449 597.000
45.90495 549.000
45.92541 487.000
45.94587 378.000
45.96632 407.000
45.98678 357.000
46.00724 338.000
46.02770 380.000
46.04816 348.000
46.06862 320.000
46.08908 349.000
46.10953 348.000
46.12999 332.000
46.15045 346.000
46.17091 343.000
46.19137 313.000
46.21183 339.000
46.23229 320.000
46.25275 300.000
46.27320 294.000
46.29366 287.000
46.31412 313.000
46.33458 331.000
46.35504 313.000
46.37550 292.000
46.39596 326.000
46.41641 305.000
46.43687 309.000
46.45733 318.000
46.47779 300.000
46.49825 330.000
46.51871 305.000
46.53917 271.000
46.55963 293.000
46.58008 319.000
46.60054 266.000
46.62100 273.000
46.64146 269.000
46.66192 273.000
46.68238 288.000
46.70284 263.000
46.72329 312.000
46.74375 301.000
46.76421 274.000
46.78467 274.000
46.80513 277.000
46.82559 300.000
46.84605 320.000
46.86651 276.000
46.88696 299.000
46.90742 260.000
46.92788 302.000
46.94834 303.000
46.96880 278.000
46.98926 272.000
47.00972 272.000
47.03017 284.000
47.05063 282.000
47.07109 258.000
47.09155 296.000
47.11201 279.000
47.13247 304.000
47.15293 276.000
47.17339 290.000
47.19384 307.000
47.21430 268.000
47.23476 300.000
47.25522 293.000
47.27568 286.000
47.29614 263.000
47.31660 293.000
47.33705 291.000
47.35751 320.000
47.37797 268.000
47.39843 291.000
47.41889 249.000
47.43935 257.000
47.45981 278.000
47.48027 259.000
47.50072 302.000
47.52118 280.000
47.54164 291.000
47.56210 311.000
47.58256 276.000
47.60302 290.000
47.62348 292.000
47.64393 300.000
47.66439 284.000
47.68485 286.000
47.70531 279.000
47.72577 289.000
47.74623 257.000
47.76669 303.000
47.78715 303.000
47.80760 275.000
47.82806 288.000
47.84852 320.000
47.86898 330.000
47.88944 305.000
47.90990 364.000
47.93036 338.000
47.95081 399.000
47.97127 394.000
47.99173 447.000
48.01219 396.000
48.03265 410.000
48.05311 373.000
48.07357 383.000
48.09402 392.000
48.11448 372.000
48.13494 363.000
48.15540 359.000
48.17586 355.000
48.19632 326.000
48.21678 277.000
48.23724 312.000
48.25769 325.000
48.27815 327.000
48.29861 303.000
48.31907 278.000
48.33953 282.000
48.35999 289.000
48.38045 317.000
48.40090 294.000
48.42136 294.000
48.44182 288.000
48.46228 288.000
48.48274 268.000
48.50320 281.000
48.52366 253.000
48.54412 293.000
48.56457 280.000
48.58503 258.000
48.60549 256.000
48.62595 277.000
48.64641 273.000
48.66687 285.000
48.68733 336.000
48.70778 286.000
48.72824 274.000
48.74870 271.000
48.76916 312.000
48.78962 295.000
48.81008 322.000
48.83054 293.000
48.85100 298.000
48.87145 277.000
48.89191 297.000
48.91237 299.000
48.93283 264.000
48.95329 303.000
48.97375 291.000
48.99421 340.000
49.01466 290.000
49.03512 304.000
49.05558 303.000
49.07604 348.000
49.09650 330.000
49.11696 342.000
49.13742 333.000
49.15788 307.000
49.17833 396.000
49.19879 343.000
49.21925 371.000
49.23971 378.000
49.26017 356.000
49.28063 386.000
49.30109 421.000
49.32154 409.000
49.34200 461.000
49.36246 475.000
49.38292 503.000
49.40338 481.000
49.42384 511.000
49.44430 476.000
49.46476 498.000
49.48521 511.000
49.50567 457.000
49.52613 490.000
49.54659 470.000
49.56705 447.000
49.58751 448.000
49.60797 432.000
49.62842 459.000
49.64888 401.000
49.66934 381.000
49.68980 398.000
49.71026 368.000
49.73072 386.000
49.75118 406.000
49.77164 414.000
49.79209 418.000
49.81255 411.000
49.83301 499.000
49.85347 502.000
49.87393 496.000
49.89439 573.000
49.91485 653.000
49.93530 724.000
49.95576 829.000
49.97622 1025.000
49.99668 1359.000
50.01714 1551.000
50.03760 2020.000
50.05806 2378.000
50.07851 2791.000
50.09897 2952.000
50.11943 2795.000
50.13989 2304.000
50.16035 1924.000
50.18081 1729.000
50.20127 1660.000
50.22173 1585.000
50.24218 1611.000
50.26264 1252.000
50.28310 1001.000
50.30356 696.000
50.32402 535.000
50.34448 454.000
50.36494 444.000
50.38539 357.000
50.40585 358.000
50.42631 341.000
50.44677 306.000
50.46723 272.000
50.48769 343.000
50.50815 294.000
50.52861 318.000
50.54906 329.000
50.56952 333.000
50.58998 354.000
50.61044 349.000
50.63090 316.000
50.65136 332.000
50.67182 301.000
50.69227 283.000
50.71273 330.000
50.73319 313.000
50.75365 318.000
50.77411 302.000
50.79457 309.000
50.81503 280.000
50.83549 277.000
50.85594 279.000
50.87640 264.000
50.89686 260.000
50.91732 250.000
50.93778 282.000
50.95824 299.000
50.97870 258.000
50.99915 276.000
51.01961 264.000
51.04007 261.000
51.06053 314.000
51.08099 266.000
51.10145 279.000
51.12191 294.000
51.14237 271.000
51.16282 295.000
51.18328 277.000
51.20374 296.000
51.22420 242.000
51.24466 264.000
51.26512 258.000
51.28558 260.000
51.30603 270.000
51.32649 250.000
51.34695 262.000
51.36741 275.000
51.38787 286.000
51.40833 250.000
51.42879 283.000
51.44925 260.000
51.46970 266.000
51.49016 269.000
51.51062 277.000
51.53108 292.000
51.55154 246.000
51.57200 305.000
51.59246 250.000
51.61291 273.000
51.63337 293.000
51.65383 291.000
51.67429 232.000
51.69475 266.000
51.71521 259.000
51.73567 265.000
51.75613 238.000
51.77658 263.000
51.79704 272.000
51.81750 288.000
51.83796 248.000
51.85842 268.000
51.87888 265.000
51.89934 309.000
51.91979 287.000
51.94025 258.000
51.96071 266.000
51.98117 255.000
52.00163 256.000
52.02209 261.000
52.04255 259.000
52.06301 276.000
52.08346 295.000
52.10392 289.000
52.12438 278.000
52.14484 281.000
52.16530 264.000
52.18576 264.000
52.20622 278.000
52.22667 268.000
52.24713 287.000
52.26759 264.000
52.28805 301.000
52.30851 287.000
52.32897 253.000
52.34943 306.000
52.36988 281.000
52.39034 274.000
52.41080 245.000
52.43126 266.000
52.45172 288.000
52.47218 299.000
52.49264 275.000
52.51310 288.000
52.53355 301.000
52.55401 271.000
52.57447 269.000
52.59493 284.000
52.61539 275.000
52.63585 306.000
52.65631 277.000
52.67676 299.000
52.69722 292.000
52.71768 324.000
52.73814 272.000
52.75860 280.000
52.77906 275.000
52.79952 270.000
52.81998 293.000
52.84043 290.000
52.86089 308.000
52.88135 319.000
52.90181 297.000
52.92227 299.000
52.94273 317.000
52.96319 319.000
52.98364 317.000
53.00410 299.000
53.02456 331.000
53.04502 315.000
53.06548 314.000
53.08594 337.000
53.10640 339.000
53.12686 318.000
53.14731 320.000
53.16777 338.000
53.18823 353.000
53.20869 379.000
53.22915 371.000
53.24961 360.000
53.27007 366.000
53.29052 370.000
53.31098 366.000
53.33144 342.000
53.35190 308.000
53.37236 382.000
53.39282 384.000
53.41328 393.000
53.43374 371.000
53.45419 385.000
53.47465 371.000
53.49511 382.000
53.51557 382.000
53.53603 402.000
53.55649 411.000
53.57695 410.000
53.59740 414.000
53.61786 401.000
53.63832 388.000
53.65878 469.000
53.67924 454.000
53.69970 433.000
53.72016 465.000
53.74062 498.000
53.76107 467.000
53.78153 496.000
53.80199 521.000
53.82245 546.000
53.84291 550.000
53.86337 551.000
53.88383 615.000
53.90428 569.000
53.92474 592.000
53.94520 604.000
53.96566 663.000
53.98612 684.000
54.00658 634.000
54.02704 670.000
54.04750 698.000
54.06795 681.000
54.08841 634.000
54.10887 630.000
54.12933 606.000
54.14979 584.000
54.17025 560.000
54.19071 600.000
54.21116 575.000
54.23162 515.000
54.25208 551.000
54.27254 552.000
54.29300 487.000
54.31346 507.000
54.33392 435.000
54.35437 437.000
54.37483 438.000
54.39529 401.000
54.41575 436.000
54.43621 430.000
54.45667 430.000
54.47713 357.000
54.49759 402.000
54.51804 391.000
54.53850 418.000
54.55896 395.000
54.57942 434.000
54.59988 458.000
54.62034 446.000
54.64080 489.000
54.66125 523.000
54.68171 559.000
54.70217 577.000
54.72263 682.000
54.74309 738.000
54.76355 826.000
54.78401 885.000
54.80447 1064.000
54.82492 1023.000
54.84538 1092.000
54.86584 1012.000
54.88630 817.000
54.90676 824.000
54.92722 731.000
54.94768 749.000
54.96813 788.000
54.98859 757.000
55.00905 748.000
55.02951 650.000
55.04997 581.000
55.07043 550.000
55.09089 469.000
55.11135 521.000
55.13180 489.000
55.15226 519.000
55.17272 549.000
55.19318 542.000
55.21364 524.000
55.23410 641.000
55.25456 663.000
55.27501 729.000
55.29547 695.000
55.31593 629.000
55.33639 596.000
55.35685 529.000
55.37731 529.000
55.39777 516.000
55.41823 562.000
55.43868 499.000
55.45914 526.000
55.47960 480.000
55.50006 432.000
55.52052 384.000
55.54098 378.000
55.56144 372.000
55.58189 377.000
55.60235 354.000
55.62281 376.000
55.64327 367.000
55.66373 335.000
55.68419 379.000
55.70465 373.000
55.72511 352.000
55.74556 366.000
55.76602 352.000
55.78648 380.000
55.80694 367.000
55.82740 342.000
55.84786 374.000
55.86832 394.000
55.88877 340.000
55.90923 317.000
55.92969 339.000
55.95015 363.000
55.97061 302.000
55.99107 339.000
56.01153 333.000
56.03199 322.000
56.05244 334.000
56.07290 330.000
56.09336 342.000
56.11382 336.000
56.13428 331.000
56.15474 325.000
56.17520 308.000
56.19565 318.000
56.21611 332.000
56.23657 372.000
56.25703 323.000
56.27749 360.000
56.29795 310.000
56.31841 339.000
56.33886 310.000
56.35932 318.000
56.37978 345.000
56.40024 316.000
56.42070 346.000
56.44116 357.000
56.46162 333.000
56.48208 352.000
56.50253 340.000
56.52299 331.000
56.54345 331.000
56.56391 351.000
56.58437 372.000
56.60483 349.000
56.62529 353.000
56.64574 343.000
56.66620 333.000
56.68666 366.000
56.70712 331.000
56.72758 360.000
56.74804 371.000
56.76850 373.000
56.78896 361.000
56.80941 372.000
56.82987 340.000
56.85033 395.000
56.87079 359.000
56.89125 365.000
56.91171 361.000
56.93217 336.000
56.95262 369.000
56.97308 377.000
56.99354 349.000
57.01400 373.000
57.03446 354.000
57.05492 365.000
57.07538 417.000
57.09584 421.000
57.11629 435.000
57.13675 420.000
57.15721 440.000
57.17767 431.000
57.19813 446.000
57.21859 441.000
57.23905 446.000
57.25950 453.000
57.27996 489.000
57.30042 439.000
57.32088 473.000
57.34134 478.000
57.36180 460.000
57.38226 474.000
57.40272 463.000
57.42317 431.000
57.44363 459.000
57.46409 480.000
57.48455 484.000
57.50501 539.000
57.52547 468.000
57.54593 504.000
57.56638 497.000
57.58684 510.000
57.60730 478.000
57.62776 472.000
57.64822 497.000
57.66868 467.000
57.68914 428.000
57.70960 444.000
57.73005 426.000
57.75051 432.000
57.77097 428.000
57.79143 434.000
57.81189 381.000
57.83235 398.000
57.85281 393.000
57.87326 386.000
57.89372 386.000
57.91418 382.000
57.93464 405.000
57.95510 384.000
57.97556 361.000
57.99602 362.000
58.01648 374.000
58.03693 375.000
58.05739 399.000
58.07785 398.000
58.09831 330.000
58.11877 374.000
58.13923 360.000
58.15969 415.000
58.18014 390.000
58.20060 398.000
58.22106 380.000
58.24152 367.000
58.26198 415.000
58.28244 392.000
58.30290 408.000
58.32335 400.000
58.34381 393.000
58.36427 387.000
58.38473 406.000
58.40519 421.000
58.42565 413.000
58.44611 407.000
58.46657 420.000
58.48702 415.000
58.50748 384.000
58.52794 355.000
58.54840 414.000
58.56886 375.000
58.58932 409.000
58.60978 409.000
58.63023 428.000
58.65069 419.000
58.67115 394.000
58.69161 426.000
58.71207 445.000
58.73253 429.000
58.75299 426.000
58.77345 427.000
58.79390 392.000
58.81436 470.000
58.83482 463.000
58.85528 445.000
58.87574 433.000
58.89620 462.000
58.91666 468.000
58.93711 482.000
58.95757 495.000
58.97803 509.000
58.99849 473.000
59.01895 487.000
59.03941 501.000
59.05987 503.000
59.08033 508.000
59.10078 498.000
59.12124 499.000
59.14170 448.000
59.16216 480.000
59.18262 502.000
59.20308 493.000
59.22354 474.000
59.24399 502.000
59.26445 528.000
59.28491 517.000
59.30537 535.000
59.32583 498.000
59.34629 496.000
59.36675 527.000
59.38721 509.000
59.40766 538.000
59.42812 497.000
59.44858 518.000
59.46904 498.000
59.48950 567.000
59.50996 511.000
59.53042 550.000
59.55087 535.000
59.57133 555.000
59.59179 614.000
59.61225 628.000
59.63271 621.000
59.65317 627.000
59.67363 722.000
59.69409 724.000
59.71454 766.000
59.73500 849.000
59.75546 950.000
59.77592 1096.000
59.79638 1283.000
59.81684 1465.000
59.83730 1712.000
59.85775 1949.000
59.87821 2101.000
59.89867 2187.000
59.91913 2222.000
59.93959 2055.000
59.96005 1840.000
59.98051 1552.000
60.00097 1434.000
60.02142 1331.000
60.04188 1335.000
60.06234 1405.000
60.08280 1338.000
60.10326 1177.000
60.12372 978.000
60.14418 853.000
60.16463 683.000
60.18509 681.000
60.20555 596.000
60.22601 609.000
60.24647 525.000
60.26693 575.000
60.28739 518.000
60.30784 499.000
60.32830 505.000
60.34876 554.000
60.36922 605.000
60.38968 563.000
60.41014 607.000
60.43060 582.000
60.45106 615.000
60.47151 654.000
60.49197 625.000
60.51243 608.000
60.53289 626.000
60.55335 671.000
60.57381 639.000
60.59427 662.000
60.61472 699.000
60.63518 669.000
60.65564 684.000
60.67610 656.000
60.69656 636.000
60.71702 617.000
60.73748 604.000
60.75794 608.000
60.77839 596.000
60.79885 591.000
60.81931 529.000
60.83977 519.000
60.86023 560.000
60.88069 515.000
60.90115 525.000
60.92160 527.000
60.94206 517.000
60.96252 506.000
60.98298 472.000
61.00344 460.000
61.02390 479.000
61.04436 486.000
61.06482 440.000
61.08527 450.000
61.10573 481.000
61.12619 464.000
61.14665 463.000
61.16711 414.000
61.18757 456.000
61.20803 440.000
61.22848 435.000
61.24894 395.000
61.26940 401.000
61.28986 407.000
61.31032 386.000
61.33078 403.000
61.35124 410.000
61.37170 424.000
61.39215 406.000
61.41261 420.000
61.43307 402.000
61.45353 369.000
61.47399 406.000
61.49445 414.000
61.51491 376.000
61.53536 393.000
61.55582 383.000
61.57628 366.000
61.59674 388.000
61.61720 379.000
61.63766 357.000
61.65812 392.000
61.67858 349.000
61.69903 389.000
61.71949 345.000
61.73995 389.000
61.76041 364.000
61.78087 364.000
61.80133 377.000
61.82179 409.000
61.84224 368.000
61.86270 400.000
61.88316 390.000
61.90362 411.000
61.92408 385.000
61.94454 377.000
61.96500 408.000
61.98546 395.000
62.00591 447.000
62.02637 439.000
62.04683 372.000
62.06729 409.000
62.08775 413.000
62.10821 398.000
62.12867 395.000
62.14912 441.000
62.16958 415.000
62.19004 424.000
62.21050 423.000
62.23096 434.000
62.25142 472.000
62.27188 468.000
62.29234 489.000
62.31279 518.000
62.33325 521.000
62.35371 481.000
62.37417 544.000
62.39463 582.000
62.41509 516.000
62.43555 556.000
62.45600 550.000
62.47646 531.000
62.49692 551.000
62.51738 551.000
62.53784 516.000
62.55830 523.000
62.57876 550.000
62.59921 526.000
62.61967 467.000
62.64013 507.000
62.66059 537.000
62.68105 480.000
62.70151 494.000
62.72197 446.000
62.74243 472.000
62.76288 463.000
62.78334 499.000
62.80380 456.000
62.82426 463.000
62.84472 458.000
62.86518 456.000
62.88564 479.000
62.90609 440.000
62.92655 456.000
62.94701 454.000
62.96747 430.000
62.98793 432.000
63.00839 471.000
63.02885 452.000
63.04931 433.000
63.06976 414.000
63.09022 450.000
63.11068 451.000
63.13114 418.000
63.15160 407.000
63.17206 445.000
63.19252 436.000
63.21297 416.000
63.23343 443.000
63.25389 389.000
63.27435 465.000
63.29481 422.000
63.31527 445.000
63.33573 404.000
63.35619 435.000
63.37664 457.000
63.39710 411.000
63.41756 466.000
63.43802 441.000
63.45848 442.000
63.47894 435.000
63.49940 436.000
63.51985 452.000
63.54031 482.000
63.56077 422.000
63.58123 441.000
63.60169 440.000
63.62215 447.000
63.64261 461.000
63.66307 485.000
63.68352 492.000
63.70398 478.000
63.72444 546.000
63.74490 468.000
63.76536 503.000
63.78582 537.000
63.80628 562.000
63.82673 573.000
63.84719 650.000
63.86765 668.000
63.88811 695.000
63.90857 751.000
63.92903 848.000
63.94949 907.000
63.96995 918.000
63.99040 917.000
64.01086 849.000
64.03132 798.000
64.05178 797.000
64.07224 687.000
64.09270 731.000
64.11316 667.000
64.13361 714.000
64.15407 699.000
64.17453 712.000
64.19499 651.000
64.21545 600.000
64.23591 634.000
64.25637 550.000
64.27683 558.000
64.29728 530.000
64.31774 526.000
64.33820 526.000
64.35866 529.000
64.37912 564.000
64.39958 562.000
64.42004 587.000
64.44049 567.000
64.46095 592.000
64.48141 589.000
64.50187 603.000
64.52233 656.000
64.54279 672.000
64.56325 649.000
64.58370 656.000
64.60416 703.000
64.62462 677.000
64.64508 687.000
64.66554 637.000
64.68600 712.000
64.70646 695.000
64.72692 640.000
64.74737 683.000
64.76783 708.000
64.78829 705.000
64.80875 643.000
64.82921 637.000
64.84967 656.000
64.87013 635.000
64.89058 653.000
64.91104 714.000
64.93150 670.000
64.95196 656.000
64.97242 652.000
64.99288 638.000
65.01334 657.000
65.03380 671.000
65.05425 692.000
65.07471 701.000
65.09517 697.000
65.11563 650.000
65.13609 677.000
65.15655 681.000
65.17701 650.000
65.19746 663.000
65.21792 645.000
65.23838 641.000
65.25884 631.000
65.27930 642.000
65.29976 644.000
65.32022 651.000
65.34068 645.000
65.36113 603.000
65.38159 616.000
65.40205 637.000
65.42251 604.000
65.44297 569.000
65.46343 590.000
65.48389 572.000
65.50434 611.000
65.52480 600.000
65.54526 624.000
65.56572 586.000
65.58618 611.000
65.60664 617.000
65.62710 595.000
65.64756 620.000
65.66801 625.000
65.68847 635.000
65.70893 632.000
65.72939 632.000
65.74985 600.000
65.77031 596.000
65.79077 575.000
65.81122 559.000
65.83168 546.000
65.85214 613.000
65.87260 561.000
65.89306 584.000
65.91352 594.000
65.93398 552.000
65.95444 608.000
65.97489 538.000
65.99535 519.000
66.01581 512.000
66.03627 532.000
66.05673 499.000
66.07719 530.000
66.09765 534.000
66.11810 540.000
66.13856 510.000
66.15902 556.000
66.17948 581.000
66.19994 540.000
66.22040 549.000
66.24086 558.000
66.26132 545.000
66.28177 573.000
66.30223 565.000
66.32269 543.000
66.34315 522.000
66.36361 560.000
66.38407 570.000
66.40453 549.000
66.42498 548.000
66.44544 574.000
66.46590 491.000
66.48636 571.000
66.50682 526.000
66.52728 549.000
66.54774 525.000
66.56819 496.000
66.58865 541.000
66.60911 507.000
66.62957 522.000
66.65003 482.000
66.67049 468.000
66.69095 460.000
66.71141 513.000
66.73186 494.000
66.75232 517.000
66.77278 480.000
66.79324 486.000
66.81370 495.000
66.83416 504.000
66.85462 507.000
66.87507 475.000
66.89553 498.000
66.91599 524.000
66.93645 450.000
66.95691 495.000
66.97737 432.000
66.99783 504.000
67.01829 478.000
67.03874 469.000
67.05920 518.000
67.07966 470.000
67.10012 481.000
67.12058 467.000
67.14104 447.000
67.16150 452.000
67.18195 466.000
67.20241 457.000
67.22287 481.000
67.24333 509.000
67.26379 506.000
67.28425 470.000
67.30471 469.000
67.32517 509.000
67.34562 487.000
67.36608 459.000
67.38654 549.000
67.40700 529.000
67.42746 577.000
67.44792 540.000
67.46838 635.000
67.48883 611.000
67.50929 697.000
67.52975 790.000
67.55021 851.000
67.57067 888.000
67.59113 1069.000
67.61159 1161.000
67.63205 1393.000
67.65250 1386.000
67.67296 1524.000
67.69342 1508.000
67.71388 1335.000
67.73434 1226.000
67.75480 1136.000
67.77526 1161.000
67.79571 1014.000
67.81617 1053.000
67.83663 1071.000
67.85709 1125.000
67.87755 1145.000
67.89801 1140.000
67.91847 1175.000
67.93893 1124.000
67.95938 1128.000
67.97984 1194.000
68.00030 1345.000
68.02076 1492.000
68.04122 1690.000
68.06168 1898.000
68.08214 1926.000
68.10259 2120.000
68.12305 2035.000
68.14351 1814.000
68.16397 1711.000
68.18443 1651.000
68.20489 1697.000
68.22535 1716.000
68.24581 1818.000
68.26626 1819.000
68.28672 1714.000
68.30718 1661.000
68.32764 1400.000
68.34810 1240.000
68.36856 1016.000
68.38902 980.000
68.40947 882.000
68.42993 829.000
68.45039 859.000
68.47085 839.000
68.49131 714.000
68.51177 663.000
68.53223 589.000
68.55268 568.000
68.57314 489.000
68.59360 506.000
68.61406 432.000
68.63452 416.000
68.65498 419.000
68.67544 403.000
68.69590 441.000
68.71635 421.000
68.73681 389.000
68.75727 391.000
68.77773 470.000
68.79819 401.000
68.81865 393.000
68.83911 367.000
68.85956 392.000
68.88002 413.000
68.90048 413.000
68.92094 397.000
68.94140 386.000
68.96186 385.000
68.98232 378.000
69.00278 374.000
69.02323 370.000
69.04369 355.000
69.06415 390.000
69.08461 406.000
69.10507 377.000
69.12553 344.000
69.14599 381.000
69.16644 385.000
69.18690 408.000
69.20736 369.000
69.22782 420.000
69.24828 344.000
69.26874 374.000
69.28920 376.000
69.30966 352.000
69.33011 388.000
69.35057 395.000
69.37103 406.000
69.39149 367.000
69.41195 380.000
69.43241 364.000
69.45287 370.000
69.47332 391.000
69.49378 417.000
69.51424 384.000
69.53470 411.000
69.55516 400.000
69.57562 426.000
69.59608 405.000
69.61654 370.000
69.63699 376.000
69.65745 390.000
69.67791 397.000
69.69837 394.000
69.71883 383.000
69.73929 392.000
69.75975 369.000
69.78020 411.000
69.80066 397.000
69.82112 384.000
69.84158 402.000
69.86204 385.000
69.88250 366.000
69.90296 397.000
69.92342 380.000
69.94387 373.000
69.96433 366.000
69.98479 402.000
70.00525 442.000
70.02571 434.000
70.04617 484.000
70.06663 429.000
70.08708 425.000
70.10754 403.000
70.12800 407.000
70.14846 400.000
70.16892 444.000
70.18938 437.000
70.20984 458.000
70.23030 444.000
70.25075 437.000
70.27121 449.000
70.29167 389.000
70.31213 471.000
70.33259 415.000
70.35305 430.000
70.37351 413.000
70.39396 428.000
70.41442 431.000
70.43488 415.000
70.45534 409.000
70.47580 438.000
70.49626 438.000
70.51672 408.000
70.53717 430.000
70.55763 405.000
70.57809 432.000
70.59855 382.000
70.61901 436.000
70.63947 372.000
70.65993 363.000
70.68039 397.000
70.70084 399.000
70.72130 415.000
70.74176 442.000
70.76222 391.000
70.78268 442.000
70.80314 427.000
70.82360 391.000
70.84405 410.000
70.86451 416.000
70.88497 396.000
70.90543 424.000
70.92589 399.000
70.94635 425.000
70.96681 384.000
70.98727 420.000
71.00772 401.000
71.02818 398.000
71.04864 429.000
71.06910 415.000
71.08956 396.000
71.11002 370.000
71.13048 384.000
71.15093 389.000
71.17139 413.000
71.19185 397.000
71.21231 392.000
71.23277 381.000
71.25323 352.000
71.27369 379.000
71.29415 401.000
71.31460 372.000
71.33506 385.000
71.35552 387.000
71.37598 355.000
71.39644 370.000
71.41690 342.000
71.43736 393.000
71.45781 385.000
71.47827 368.000
71.49873 353.000
71.51919 370.000
71.53965 369.000
71.56011 356.000
71.58057 364.000
71.60103 333.000
71.62148 384.000
71.64194 332.000
71.66240 362.000
71.68286 402.000
71.70332 380.000
71.72378 387.000
71.74424 361.000
71.76469 413.000
71.78515 385.000
71.80561 386.000
71.82607 354.000
71.84653 390.000
71.86699 398.000
71.88745 363.000
71.90791 421.000
71.92836 381.000
71.94882 393.000
71.96928 386.000
71.98974 385.000
72.01020 392.000
72.03066 397.000
72.05112 373.000
72.07157 339.000
72.09203 383.000
72.11249 358.000
72.13295 372.000
72.15341 362.000
72.17387 326.000
72.19433 378.000
72.21479 359.000
72.23524 363.000
72.25570 373.000
72.27616 369.000
72.29662 298.000
72.31708 375.000
72.33754 354.000
72.35800 356.000
72.37845 334.000
72.39891 348.000
72.41937 341.000
72.43983 329.000
72.46029 374.000
72.48075 292.000
72.50121 347.000
72.52167 352.000
72.54212 329.000
72.56258 316.000
72.58304 336.000
72.60350 350.000
72.62396 304.000
72.64442 349.000
72.66488 292.000
72.68533 351.000
72.70579 351.000
72.72625 340.000
72.74671 372.000
72.76717 329.000
72.78763 337.000
72.80809 302.000
72.82854 326.000
72.84900 329.000
72.86946 325.000
72.88992 347.000
72.91038 341.000
72.93084 346.000
72.95130 321.000
72.97176 340.000
72.99221 331.000
73.01267 311.000
73.03313 314.000
73.05359 334.000
73.07405 350.000
73.09451 350.000
73.11497 347.000
73.13542 329.000
73.15588 373.000
73.17634 382.000
73.19680 380.000
73.21726 387.000
73.23772 441.000
73.25818 418.000
73.27864 442.000
73.29909 486.000
73.31955 550.000
73.34001 601.000
73.36047 680.000
73.38093 745.000
73.40139 769.000
73.42185 735.000
73.44230 780.000
73.46276 664.000
73.48322 607.000
73.50368 560.000
73.52414 533.000
73.54460 573.000
73.56506 546.000
73.58552 560.000
73.60597 569.000
73.62643 550.000
73.64689 569.000
73.66735 522.000
73.68781 476.000
73.70827 448.000
73.72873 483.000
73.74918 411.000
73.76964 419.000
73.79010 388.000
73.81056 433.000
73.83102 405.000
73.85148 426.000
73.87194 406.000
73.89240 409.000
73.91285 404.000
73.93331 448.000
73.95377 430.000
73.97423 431.000
73.99469 399.000
74.01515 416.000
74.03561 448.000
74.05606 428.000
74.07652 416.000
74.09698 428.000
74.11744 415.000
74.13790 416.000
74.15836 438.000
74.17882 424.000
74.19928 470.000
74.21973 389.000
74.24019 430.000
74.26065 412.000
74.28111 394.000
74.30157 424.000
74.32203 441.000
74.34249 408.000
74.36294 435.000
74.38340 416.000
74.40386 419.000
74.42432 405.000
74.44478 434.000
74.46524 385.000
74.48570 417.000
74.50616 440.000
74.52661 466.000
74.54707 443.000
74.56753 426.000
74.58799 430.000
74.60845 427.000
74.62891 402.000
74.64937 428.000
74.66982 402.000
74.69028 412.000
74.71074 415.000
74.73120 434.000
74.75166 433.000
74.77212 430.000
74.79258 429.000
74.81303 457.000
74.83349 439.000
74.85395 447.000
74.87441 460.000
74.89487 474.000
74.91533 491.000
74.93579 515.000
74.95625 509.000
74.97670 466.000
74.99716 529.000
75.01762 480.000
75.03808 454.000
75.05854 478.000
75.07900 458.000
75.09946 418.000
75.11991 479.000
75.14037 473.000
75.16083 505.000
75.18129 491.000
75.20175 508.000
75.22221 505.000
75.24267 483.000
75.26313 469.000
75.28358 495.000
75.30404 501.000
75.32450 492.000
75.34496 507.000
75.36542 523.000
75.38588 531.000
75.40634 557.000
75.42679 553.000
75.44725 613.000
75.46771 626.000
75.48817 700.000
75.50863 738.000
75.52909 841.000
75.54955 872.000
75.57001 879.000
75.59046 943.000
75.61092 850.000
75.63138 851.000
75.65184 739.000
75.67230 690.000
75.69276 625.000
75.71322 596.000
75.73367 630.000
75.75413 599.000
75.77459 593.000
75.79505 602.000
75.81551 622.000
75.83597 575.000
75.85643 544.000
75.87689 498.000
75.89734 481.000
75.91780 424.000
75.93826 429.000
75.95872 401.000
75.97918 405.000
75.99964 391.000
76.02010 379.000
76.04055 385.000
76.06101 343.000
76.08147 347.000
76.10193 364.000
76.12239 345.000
76.14285 332.000
76.16331 362.000
76.18377 321.000
76.20422 315.000
76.22468 358.000
76.24514 344.000
76.26560 316.000
76.28606 356.000
76.30652 344.000
76.32698 360.000
76.34743 326.000
76.36789 349.000
76.38835 337.000
76.40881 359.000
76.42927 307.000
76.44973 346.000
76.47019 336.000
76.49065 323.000
76.51110 330.000
76.53156 359.000
76.55202 357.000
76.57248 355.000
76.59294 383.000
76.61340 338.000
76.63386 394.000
76.65431 332.000
76.67477 368.000
76.69523 362.000
76.71569 362.000
76.73615 358.000
76.75661 347.000
76.77707 350.000
76.79752 343.000
76.81798 371.000
76.83844 373.000
76.85890 370.000
76.87936 367.000
76.89982 368.000
76.92028 390.000
76.94074 383.000
76.96119 355.000
76.98165 366.000
77.00211 366.000
77.02257 340.000
77.04303 371.000
77.06349 362.000
77.08395 354.000
77.10440 359.000
77.12486 347.000
77.14532 335.000
77.16578 365.000
77.18624 391.000
77.20670 386.000
77.22716 405.000
77.24762 358.000
77.26807 368.000
77.28853 389.000
77.30899 402.000
77.32945 355.000
77.34991 369.000
77.37037 399.000
77.39083 429.000
77.41128 410.000
77.43174 450.000
77.45220 430.000
77.47266 479.000
77.49312 499.000
77.51358 613.000
77.53404 584.000
77.55450 561.000
77.57495 606.000
77.59541 580.000
77.61587 618.000
77.63633 580.000
77.65679 559.000
77.67725 523.000
77.69771 482.000
77.71816 445.000
77.73862 518.000
77.75908 521.000
77.77954 537.000
77.80000 509.000
77.82046 471.000
77.84092 465.000
77.86138 461.000
77.88183 427.000
77.90229 389.000
77.92275 379.000
77.94321 388.000
77.96367 341.000
77.98413 337.000
78.00459 377.000
78.02504 341.000
78.04550 357.000
78.06596 306.000
78.08642 336.000
78.10688 346.000
78.12734 345.000
78.14780 320.000
78.16826 333.000
78.18871 307.000
78.20917 316.000
78.22963 343.000
78.25009 329.000
78.27055 297.000
78.29101 301.000
78.31147 293.000
78.33192 301.000
78.35238 298.000
78.37284 324.000
78.39330 324.000
78.41376 280.000
78.43422 311.000
78.45468 292.000
78.47514 278.000
78.49559 295.000
78.51605 289.000
78.53651 322.000
78.55697 283.000
78.57743 318.000
78.59789 313.000
78.61835 314.000
78.63880 304.000
78.65926 339.000
78.67972 332.000
78.70018 311.000
78.72064 321.000
78.74110 305.000
78.76156 303.000
78.78201 318.000
78.80247 306.000
78.82293 322.000
78.84339 291.000
78.86385 326.000
78.88431 279.000
78.90477 268.000
78.92523 329.000
78.94568 309.000
78.96614 292.000
78.98660 298.000
79.00706 283.000
79.02752 287.000
79.04798 283.000
79.06844 285.000
79.08889 302.000
79.10935 274.000
79.12981 307.000
79.15027 267.000
79.17073 297.000
79.19119 338.000
79.21165 298.000
79.23211 317.000
79.25256 304.000
79.27302 262.000
79.29348 286.000
79.31394 338.000
79.33440 302.000
79.35486 302.000
79.37532 319.000
79.39577 301.000
79.41623 288.000
79.43669 297.000
79.45715 328.000
79.47761 337.000
79.49807 364.000
79.51853 380.000
79.53899 396.000
79.55944 357.000
79.57990 380.000
79.60036 435.000
79.62082 441.000
79.64128 478.000
79.66174 487.000
79.68220 529.000
79.70265 573.000
79.72311 610.000
79.74357 700.000
79.76403 732.000
79.78449 808.000
79.80495 857.000
79.82541 883.000
79.84587 874.000
79.86632 805.000
79.88678 731.000
79.90724 707.000
79.92770 660.000
79.94816 642.000
79.96862 652.000
79.98908 699.000
80.00953 677.000
