10.00000 255.000
10.02046 211.000
10.04092 254.000
10.06138 209.000
10.08183 220.000
10.10229 241.000
10.12275 223.000
10.14321 229.000
10.16367 196.000
10.18413 207.000
10.20459 224.000
10.22505 208.000
10.24550 226.000
10.26596 212.000
10.28642 218.000
10.30688 240.000
10.32734 195.000
10.34780 211.000
10.36826 253.000
10.38871 236.000
10.40917 247.000
10.42963 214.000
10.45009 265.000
10.47055 246.000
10.49101 227.000
10.51147 229.000
10.53193 211.000
10.55238 221.000
10.57284 226.000
10.59330 227.000
10.61376 223.000
10.63422 253.000
10.65468 230.000
10.67514 219.000
10.69559 227.000
10.71605 241.000
10.73651 235.000
10.75697 237.000
10.77743 231.000
10.79789 236.000
10.81835 253.000
10.83881 230.000
10.85926 209.000
10.87972 232.000
10.90018 228.000
10.92064 264.000
10.94110 224.000
10.96156 215.000
10.98202 207.000
11.00247 240.000
11.02293 241.000
11.04339 211.000
11.06385 207.000
11.08431 242.000
11.10477 205.000
11.12523 254.000
11.14568 209.000
11.16614 240.000
11.18660 251.000
11.20706 266.000
11.22752 244.000
11.24798 238.000
11.26844 215.000
11.28890 234.000
11.30935 225.000
11.32981 226.000
11.35027 225.000
11.37073 256.000
11.39119 241.000
11.41165 215.000
11.43211 215.000
11.45256 250.000
11.47302 199.000
11.49348 234.000
11.51394 236.000
11.53440 253.000
11.55486 233.000
11.57532 216.000
11.59578 229.000
11.61623 217.000
11.63669 220.000
11.65715 222.000
11.67761 213.000
11.69807 242.000
11.71853 209.000
11.73899 242.000
11.75944 226.000
11.77990 231.000
11.80036 224.000
11.82082 240.000
11.84128 258.000
11.86174 237.000
11.88220 236.000
11.90266 240.000
11.92311 238.000
11.94357 249.000
11.96403 232.000
11.98449 268.000
12.00495 207.000
12.02541 219.000
12.04587 230.000
12.06632 236.000
12.08678 224.000
12.10724 230.000
12.12770 250.000
12.14816 251.000
12.16862 254.000
12.18908 231.000
12.20954 245.000
12.22999 267.000
12.25045 229.000
12.27091 223.000
12.29137 234.000
12.31183 248.000
12.33229 231.000
12.35275 235.000
12.37320 221.000
12.39366 255.000
12.41412 231.000
12.43458 248.000
12.45504 260.000
12.47550 253.000
12.49596 232.000
12.51642 244.000
12.53687 243.000
12.55733 240.000
12.57779 237.000
12.59825 258.000
12.61871 265.000
12.63917 233.000
12.65963 261.000
12.68008 218.000
12.70054 229.000
12.72100 254.000
12.74146 233.000
12.76192 269.000
12.78238 265.000
12.80284 237.000
12.82330 227.000
12.84375 263.000
12.86421 255.000
12.88467 259.000
12.90513 238.000
12.92559 214.000
12.94605 231.000
12.96651 224.000
12.98696 238.000
13.00742 251.000
13.02788 222.000
13.04834 225.000
13.06880 265.000
13.08926 231.000
13.10972 270.000
13.13017 244.000
13.15063 267.000
13.17109 246.000
13.19155 262.000
13.21201 244.000
13.23247 247.000
13.25293 246.000
13.27339 244.000
13.29384 236.000
13.31430 247.000
13.33476 237.000
13.35522 251.000
13.37568 233.000
13.39614 246.000
13.41660 227.000
13.43705 242.000
13.45751 208.000
13.47797 250.000
13.49843 266.000
13.51889 249.000
13.53935 244.000
13.55981 262.000
13.58027 236.000
13.60072 279.000
13.62118 241.000
13.64164 235.000
13.66210 262.000
13.68256 238.000
13.70302 233.000
13.72348 256.000
13.74393 269.000
13.76439 253.000
13.78485 240.000
13.80531 225.000
13.82577 259.000
13.84623 281.000
13.86669 261.000
13.88715 235.000
13.90760 264.000
13.92806 243.000
13.94852 266.000
13.96898 275.000
13.98944 231.000
14.00990 256.000
14.03036 258.000
14.05081 231.000
14.07127 260.000
14.09173 261.000
14.11219 267.000
14.13265 233.000
14.15311 258.000
14.17357 238.000
14.19403 241.000
14.21448 231.000
14.23494 193.000
14.25540 243.000
14.27586 245.000
14.29632 233.000
14.31678 239.000
14.33724 246.000
14.35769 257.000
14.37815 256.000
14.39861 254.000
14.41907 243.000
14.43953 229.000
14.45999 237.000
14.48045 238.000
14.50091 237.000
14.52136 238.000
14.54182 247.000
14.56228 254.000
14.58274 233.000
14.60320 248.000
14.62366 253.000
14.64412 249.000
14.66457 290.000
14.68503 265.000
14.70549 238.000
14.72595 243.000
14.74641 250.000
14.76687 237.000
14.78733 279.000
14.80779 236.000
14.82824 244.000
14.84870 232.000
14.86916 252.000
14.88962 236.000
14.91008 218.000
14.93054 230.000
14.95100 274.000
14.97145 253.000
14.99191 273.000
15.01237 259.000
15.03283 243.000
15.05329 254.000
15.07375 245.000
15.09421 248.000
15.11467 257.000
15.13512 249.000
15.15558 248.000
15.17604 242.000
15.19650 255.000
15.21696 239.000
15.23742 266.000
15.25788 257.000
15.27833 250.000
15.29879 254.000
15.31925 237.000
15.33971 252.000
15.36017 233.000
15.38063 254.000
15.40109 233.000
15.42154 271.000
15.44200 243.000
15.46246 256.000
15.48292 267.000
15.50338 248.000
15.52384 262.000
15.54430 239.000
15.56476 274.000
15.58521 259.000
15.60567 284.000
15.62613 277.000
15.64659 247.000
15.66705 269.000
15.68751 237.000
15.70797 262.000
15.72842 255.000
15.74888 272.000
15.76934 240.000
15.78980 262.000
15.81026 260.000
15.83072 269.000
15.85118 265.000
15.87164 261.000
15.89209 238.000
15.91255 254.000
15.93301 218.000
15.95347 246.000
15.97393 263.000
15.99439 285.000
16.01485 297.000
16.03530 262.000
16.05576 241.000
16.07622 285.000
16.09668 258.000
16.11714 260.000
16.13760 292.000
16.15806 277.000
16.17852 295.000
16.19897 275.000
16.21943 288.000
16.23989 295.000
16.26035 328.000
16.28081 322.000
16.30127 344.000
16.32173 336.000
16.34218 322.000
16.36264 344.000
16.38310 322.000
16.40356 319.000
16.42402 372.000
16.44448 322.000
16.46494 343.000
16.48540 340.000
16.50585 353.000
16.52631 307.000
16.54677 299.000
16.56723 291.000
16.58769 281.000
16.60815 290.000
16.62861 292.000
16.64906 296.000
16.66952 310.000
16.68998 268.000
16.71044 284.000
16.73090 292.000
16.75136 260.000
16.77182 286.000
16.79228 257.000
16.81273 272.000
16.83319 290.000
16.85365 285.000
16.87411 269.000
16.89457 292.000
16.91503 303.000
16.93549 289.000
16.95594 262.000
16.97640 253.000
16.99686 240.000
17.01732 245.000
17.03778 286.000
17.05824 257.000
17.07870 263.000
17.09916 225.000
17.11961 244.000
17.14007 245.000
17.16053 274.000
17.18099 260.000
17.20145 259.000
17.22191 257.000
17.24237 257.000
17.26282 292.000
17.28328 245.000
17.30374 265.000
17.32420 283.000
17.34466 257.000
17.36512 246.000
17.38558 265.000
17.40603 265.000
17.42649 285.000
17.44695 273.000
17.46741 257.000
17.48787 252.000
17.50833 282.000
17.52879 241.000
17.54925 274.000
17.56970 255.000
17.59016 264.000
17.61062 276.000
17.63108 266.000
17.65154 264.000
17.67200 285.000
17.69246 274.000
17.71291 273.000
17.73337 251.000
17.75383 283.000
17.77429 279.000
17.79475 279.000
17.81521 299.000
17.83567 276.000
17.85613 273.000
17.87658 279.000
17.89704 261.000
17.91750 271.000
17.93796 269.000
17.95842 275.000
17.97888 260.000
17.99934 299.000
18.01979 263.000
18.04025 277.000
18.06071 294.000
18.08117 296.000
18.10163 280.000
18.12209 275.000
18.14255 319.000
18.16301 298.000
18.18346 278.000
18.20392 295.000
18.22438 253.000
18.24484 278.000
18.26530 278.000
18.28576 285.000
18.30622 295.000
18.32667 309.000
18.34713 280.000
18.36759 313.000
18.38805 262.000
18.40851 310.000
18.42897 288.000
18.44943 314.000
18.46989 325.000
18.49034 296.000
18.51080 319.000
18.53126 292.000
18.55172 301.000
18.57218 275.000
18.59264 266.000
18.61310 296.000
18.63355 288.000
18.65401 267.000
18.67447 313.000
18.69493 316.000
18.71539 310.000
18.73585 352.000
18.75631 293.000
18.77677 317.000
18.79722 340.000
18.81768 320.000
18.83814 306.000
18.85860 319.000
18.87906 318.000
18.89952 278.000
18.91998 319.000
18.94043 328.000
18.96089 343.000
18.98135 325.000
19.00181 325.000
19.02227 332.000
19.04273 301.000
19.06319 337.000
19.08365 342.000
19.10410 297.000
19.12456 314.000
19.14502 320.000
19.16548 346.000
19.18594 316.000
19.20640 323.000
19.22686 350.000
19.24731 316.000
19.26777 291.000
19.28823 300.000
19.30869 293.000
19.32915 309.000
19.34961 331.000
19.37007 322.000
19.39052 331.000
19.41098 318.000
19.43144 325.000
19.45190 340.000
19.47236 320.000
19.49282 307.000
19.51328 319.000
19.53374 342.000
19.55419 343.000
19.57465 342.000
19.59511 375.000
19.61557 352.000
19.63603 366.000
19.65649 366.000
19.67695 379.000
19.69740 382.000
19.71786 396.000
19.73832 418.000
19.75878 420.000
19.77924 396.000
19.79970 382.000
19.82016 376.000
19.84062 363.000
19.86107 392.000
19.88153 398.000
19.90199 363.000
19.92245 360.000
19.94291 389.000
19.96337 413.000
19.98383 415.000
20.00428 358.000
20.02474 355.000
20.04520 341.000
20.06566 413.000
20.08612 357.000
20.10658 350.000
20.12704 341.000
20.14750 354.000
20.16795 370.000
20.18841 388.000
20.20887 396.000
20.22933 376.000
20.24979 363.000
20.27025 361.000
20.29071 384.000
20.31116 393.000
20.33162 382.000
20.35208 366.000
20.37254 344.000
20.39300 402.000
20.41346 346.000
20.43392 350.000
20.45438 362.000
20.47483 397.000
20.49529 354.000
20.51575 339.000
20.53621 346.000
20.55667 338.000
20.57713 389.000
20.59759 425.000
20.61804 407.000
20.63850 417.000
20.65896 496.000
20.67942 565.000
20.69988 632.000
20.72034 831.000
20.74080 1015.000
20.76126 1272.000
20.78171 1782.000
20.80217 2215.000
20.82263 2673.000
20.84309 2576.000
20.86355 2289.000
20.88401 1791.000
20.90447 1334.000
20.92492 856.000
20.94538 658.000
20.96584 482.000
20.98630 434.000
21.00676 391.000
21.02722 402.000
21.04768 398.000
21.06814 368.000
21.08859 375.000
21.10905 387.000
21.12951 348.000
21.14997 377.000
21.17043 401.000
21.19089 369.000
21.21135 410.000
21.23180 371.000
21.25226 363.000
21.27272 342.000
21.29318 352.000
21.31364 355.000
21.33410 371.000
21.35456 399.000
21.37501 351.000
21.39547 339.000
21.41593 380.000
21.43639 363.000
21.45685 374.000
21.47731 374.000
21.49777 371.000
21.51823 388.000
21.53868 391.000
21.55914 362.000
21.57960 375.000
21.60006 347.000
21.62052 341.000
21.64098 357.000
21.66144 400.000
21.68189 364.000
21.70235 366.000
21.72281 371.000
21.74327 334.000
21.76373 384.000
21.78419 362.000
21.80465 362.000
21.82511 370.000
21.84556 374.000
21.86602 372.000
21.88648 403.000
21.90694 387.000
21.92740 386.000
21.94786 381.000
21.96832 388.000
21.98877 394.000
22.00923 394.000
22.02969 423.000
22.05015 403.000
22.07061 383.000
22.09107 372.000
22.11153 385.000
22.13199 420.000
22.15244 392.000
22.17290 411.000
22.19336 419.000
22.21382 368.000
22.23428 405.000
22.25474 384.000
22.27520 398.000
22.29565 385.000
22.31611 350.000
22.33657 370.000
22.35703 369.000
22.37749 389.000
22.39795 391.000
22.41841 382.000
22.43887 377.000
22.45932 362.000
22.47978 352.000
22.50024 402.000
22.52070 363.000
22.54116 379.000
22.56162 320.000
22.58208 394.000
22.60253 368.000
22.62299 364.000
22.64345 371.000
22.66391 400.000
22.68437 373.000
22.70483 374.000
22.72529 381.000
22.74575 402.000
22.76620 379.000
22.78666 380.000
22.80712 403.000
22.82758 366.000
22.84804 385.000
22.86850 422.000
22.88896 381.000
22.90941 386.000
22.92987 365.000
22.95033 364.000
22.97079 409.000
22.99125 386.000
23.01171 388.000
23.03217 369.000
23.05263 415.000
23.07308 365.000
23.09354 383.000
23.11400 337.000
23.13446 377.000
23.15492 386.000
23.17538 384.000
23.19584 389.000
23.21629 369.000
23.23675 379.000
23.25721 420.000
23.27767 381.000
23.29813 380.000
23.31859 400.000
23.33905 428.000
23.35950 370.000
23.37996 394.000
23.40042 387.000
23.42088 400.000
23.44134 395.000
23.46180 373.000
23.48226 387.000
23.50272 430.000
23.52317 389.000
23.54363 446.000
23.56409 429.000
23.58455 440.000
23.60501 439.000
23.62547 412.000
23.64593 438.000
23.66638 409.000
23.68684 421.000
23.70730 364.000
23.72776 393.000
23.74822 370.000
23.76868 397.000
23.78914 406.000
23.80960 397.000
23.83005 382.000
23.85051 398.000
23.87097 419.000
23.89143 444.000
23.91189 447.000
23.93235 448.000
23.95281 526.000
23.97326 511.000
23.99372 518.000
24.01418 529.000
24.03464 515.000
24.05510 527.000
24.07556 493.000
24.09602 458.000
24.11648 496.000
24.13693 493.000
24.15739 520.000
24.17785 517.000
24.19831 471.000
24.21877 438.000
24.23923 457.000
24.25969 448.000
24.28014 436.000
24.30060 411.000
24.32106 398.000
24.34152 424.000
24.36198 401.000
24.38244 373.000
24.40290 424.000
24.42336 393.000
24.44381 401.000
24.46427 409.000
24.48473 416.000
24.50519 396.000
24.52565 424.000
24.54611 384.000
24.56657 408.000
24.58702 357.000
24.60748 405.000
24.62794 374.000
24.64840 362.000
24.66886 405.000
24.68932 411.000
24.70978 419.000
24.73024 394.000
24.75069 381.000
24.77115 406.000
24.79161 427.000
24.81207 426.000
24.83253 389.000
24.85299 406.000
24.87345 407.000
24.89390 419.000
24.91436 412.000
24.93482 424.000
24.95528 404.000
24.97574 404.000
24.99620 423.000
25.01666 422.000
25.03712 426.000
25.05757 425.000
25.07803 426.000
25.09849 435.000
25.11895 443.000
25.13941 484.000
25.15987 499.000
25.18033 544.000
25.20078 530.000
25.22124 633.000
25.24170 654.000
25.26216 738.000
25.28262 731.000
25.30308 724.000
25.32354 740.000
25.34400 695.000
25.36445 628.000
25.38491 635.000
25.40537 596.000
25.42583 572.000
25.44629 584.000
25.46675 561.000
25.48721 524.000
25.50766 544.000
25.52812 524.000
25.54858 575.000
25.56904 514.000
25.58950 552.000
25.60996 533.000
25.63042 534.000
25.65087 546.000
25.67133 582.000
25.69179 609.000
25.71225 611.000
25.73271 597.000
25.75317 601.000
25.77363 691.000
25.79409 611.000
25.81454 663.000
25.83500 738.000
25.85546 752.000
25.87592 684.000
25.89638 787.000
25.91684 744.000
25.93730 762.000
25.95775 782.000
25.97821 800.000
25.99867 748.000
26.01913 792.000
26.03959 737.000
26.06005 763.000
26.08051 786.000
26.10097 852.000
26.12142 832.000
26.14188 809.000
26.16234 838.000
26.18280 867.000
26.20326 842.000
26.22372 900.000
26.24418 872.000
26.26463 892.000
26.28509 890.000
26.30555 824.000
26.32601 900.000
26.34647 970.000
26.36693 985.000
26.38739 1056.000
26.40785 1129.000
26.42830 1278.000
26.44876 1612.000
26.46922 2013.000
26.48968 2630.000
26.51014 3831.000
26.53060 5306.000
26.55106 7541.000
26.57151 10784.000
26.59197 13404.000
26.61243 14800.000
26.63289 13824.000
26.65335 11634.000
26.67381 8975.000
26.69427 6738.000
26.71473 4645.000
26.73518 2806.000
26.75564 1671.000
26.77610 1191.000
26.79656 947.000
26.81702 868.000
26.83748 792.000
26.85794 759.000
26.87839 680.000
26.89885 657.000
26.91931 609.000
26.93977 585.000
26.96023 550.000
26.98069 587.000
27.00115 586.000
27.02161 539.000
27.04206 552.000
27.06252 540.000
27.08298 532.000
27.10344 573.000
27.12390 540.000
27.14436 524.000
27.16482 465.000
27.18527 495.000
27.20573 520.000
27.22619 489.000
27.24665 481.000
27.26711 513.000
27.28757 480.000
27.30803 524.000
27.32849 506.000
27.34894 504.000
27.36940 537.000
27.38986 575.000
27.41032 576.000
27.43078 549.000
27.45124 505.000
27.47170 523.000
27.49215 507.000
27.51261 530.000
27.53307 530.000
27.55353 489.000
27.57399 482.000
27.59445 458.000
27.61491 465.000
27.63536 521.000
27.65582 484.000
27.67628 527.000
27.69674 490.000
27.71720 471.000
27.73766 464.000
27.75812 497.000
27.77858 503.000
27.79903 484.000
27.81949 491.000
27.83995 512.000
27.86041 479.000
27.88087 492.000
27.90133 501.000
27.92179 485.000
27.94224 507.000
27.96270 511.000
27.98316 504.000
28.00362 500.000
28.02408 458.000
28.04454 453.000
28.06500 480.000
28.08546 421.000
28.10591 449.000
28.12637 504.000
28.14683 435.000
28.16729 443.000
28.18775 418.000
28.20821 419.000
28.22867 448.000
28.24912 448.000
28.26958 457.000
28.29004 430.000
28.31050 415.000
28.33096 453.000
28.35142 408.000
28.37188 400.000
28.39234 409.000
28.41279 430.000
28.43325 416.000
28.45371 413.000
28.47417 409.000
28.49463 433.000
28.51509 407.000
28.53555 427.000
28.55600 354.000
28.57646 413.000
28.59692 417.000
28.61738 398.000
28.63784 363.000
28.65830 401.000
28.67876 407.000
28.69922 414.000
28.71967 379.000
28.74013 367.000
28.76059 362.000
28.78105 366.000
28.80151 364.000
28.82197 385.000
28.84243 432.000
28.86288 382.000
28.88334 387.000
28.90380 404.000
28.92426 437.000
28.94472 385.000
28.96518 370.000
28.98564 417.000
29.00610 412.000
29.02655 390.000
29.04701 361.000
29.06747 395.000
29.08793 395.000
29.10839 398.000
29.12885 410.000
29.14931 377.000
29.16976 411.000
29.19022 393.000
29.21068 383.000
29.23114 395.000
29.25160 384.000
29.27206 388.000
29.29252 349.000
29.31298 365.000
29.33343 383.000
29.35389 369.000
29.37435 382.000
29.39481 425.000
29.41527 413.000
29.43573 394.000
29.45619 408.000
29.47664 398.000
29.49710 381.000
29.51756 422.000
29.53802 404.000
29.55848 390.000
29.57894 397.000
29.59940 429.000
29.61985 412.000
29.64031 405.000
29.66077 484.000
29.68123 441.000
29.70169 455.000
29.72215 488.000
29.74261 468.000
29.76307 444.000
29.78352 458.000
29.80398 487.000
29.82444 465.000
29.84490 509.000
29.86536 463.000
29.88582 484.000
29.90628 491.000
29.92673 424.000
29.94719 419.000
29.96765 449.000
29.98811 407.000
30.00857 450.000
30.02903 394.000
30.04949 450.000
30.06995 422.000
30.09040 425.000
30.11086 419.000
30.13132 411.000
30.15178 465.000
30.17224 406.000
30.19270 458.000
30.21316 448.000
30.23361 458.000
30.25407 464.000
30.27453 448.000
30.29499 476.000
30.31545 450.000
30.33591 427.000
30.35637 469.000
30.37683 451.000
30.39728 419.000
30.41774 424.000
30.43820 460.000
30.45866 465.000
30.47912 440.000
30.49958 442.000
30.52004 402.000
30.54049 452.000
30.56095 464.000
30.58141 414.000
30.60187 434.000
30.62233 378.000
30.64279 474.000
30.66325 461.000
30.68371 449.000
30.70416 466.000
30.72462 508.000
30.74508 456.000
30.76554 484.000
30.78600 462.000
30.80646 505.000
30.82692 512.000
30.84737 588.000
30.86783 559.000
30.88829 584.000
30.90875 557.000
30.92921 576.000
30.94967 658.000
30.97013 624.000
30.99059 625.000
31.01104 628.000
31.03150 628.000
31.05196 656.000
31.07242 665.000
31.09288 592.000
31.11334 613.000
31.13380 578.000
31.15425 608.000
31.17471 585.000
31.19517 527.000
31.21563 566.000
31.23609 546.000
31.25655 528.000
31.27701 568.000
31.29747 564.000
31.31792 503.000
31.33838 518.000
31.35884 506.000
31.37930 508.000
31.39976 471.000
31.42022 490.000
31.44068 472.000
31.46113 522.000
31.48159 453.000
31.50205 455.000
31.52251 454.000
31.54297 462.000
31.56343 419.000
31.58389 472.000
31.60434 414.000
31.62480 435.000
31.64526 417.000
31.66572 432.000
31.68618 386.000
31.70664 400.000
31.72710 415.000
31.74756 392.000
31.76801 411.000
31.78847 409.000
31.80893 373.000
31.82939 364.000
31.84985 445.000
31.87031 427.000
31.89077 435.000
31.91122 401.000
31.93168 398.000
31.95214 423.000
31.97260 365.000
31.99306 393.000
32.01352 379.000
32.03398 381.000
32.05444 399.000
32.07489 403.000
32.09535 429.000
32.11581 375.000
32.13627 359.000
32.15673 395.000
32.17719 394.000
32.19765 408.000
32.21810 415.000
32.23856 351.000
32.25902 371.000
32.27948 403.000
32.29994 387.000
32.32040 414.000
32.34086 403.000
32.36132 395.000
32.38177 386.000
32.40223 396.000
32.42269 395.000
32.44315 351.000
32.46361 408.000
32.48407 424.000
32.50453 418.000
32.52498 398.000
32.54544 428.000
32.56590 432.000
32.58636 445.000
32.60682 373.000
32.62728 450.000
32.64774 436.000
32.66820 428.000
32.68865 460.000
32.70911 458.000
32.72957 460.000
32.75003 438.000
32.77049 480.000
32.79095 478.000
32.81141 475.000
32.83186 451.000
32.85232 469.000
32.87278 454.000
32.89324 499.000
32.91370 518.000
32.93416 551.000
32.95462 545.000
32.97508 588.000
32.99553 645.000
33.01599 611.000
33.03645 717.000
33.05691 731.000
33.07737 811.000
33.09783 832.000
33.11829 874.000
33.13874 978.000
33.15920 923.000
33.17966 897.000
33.20012 810.000
33.22058 823.000
33.24104 782.000
33.26150 656.000
33.28196 668.000
33.30241 631.000
33.32287 575.000
33.34333 489.000
33.36379 500.000
33.38425 524.000
33.40471 476.000
33.42517 457.000
33.44562 444.000
33.46608 439.000
33.48654 452.000
33.50700 440.000
33.52746 438.000
33.54792 464.000
33.56838 393.000
33.58884 388.000
33.60929 415.000
33.62975 413.000
33.65021 394.000
33.67067 379.000
33.69113 350.000
33.71159 377.000
33.73205 386.000
33.75250 372.000
33.77296 362.000
33.79342 359.000
33.81388 333.000
33.83434 369.000
33.85480 369.000
33.87526 380.000
33.89571 360.000
33.91617 351.000
33.93663 360.000
33.95709 370.000
33.97755 356.000
33.99801 355.000
34.01847 373.000
34.03893 388.000
34.05938 383.000
34.07984 388.000
34.10030 368.000
34.12076 401.000
34.14122 343.000
34.16168 398.000
34.18214 368.000
34.20259 359.000
34.22305 376.000
34.24351 367.000
34.26397 361.000
34.28443 361.000
34.30489 394.000
34.32535 372.000
34.34581 367.000
34.36626 389.000
34.38672 378.000
34.40718 355.000
34.42764 358.000
34.44810 327.000
34.46856 361.000
34.48902 368.000
34.50947 403.000
34.52993 374.000
34.55039 414.000
34.57085 390.000
34.59131 429.000
34.61177 406.000
34.63223 414.000
34.65269 406.000
34.67314 363.000
34.69360 373.000
34.71406 396.000
34.73452 408.000
34.75498 415.000
34.77544 436.000
34.79590 438.000
34.81635 416.000
34.83681 437.000
34.85727 432.000
34.87773 424.000
34.89819 467.000
34.91865 442.000
34.93911 456.000
34.95957 446.000
34.98002 465.000
35.00048 448.000
35.02094 503.000
35.04140 513.000
35.06186 503.000
35.08232 536.000
35.10278 547.000
35.12323 537.000
35.14369 544.000
35.16415 672.000
35.18461 624.000
35.20507 654.000
35.22553 589.000
35.24599 731.000
35.26645 644.000
35.28690 696.000
35.30736 670.000
35.32782 675.000
35.34828 667.000
35.36874 670.000
35.38920 674.000
35.40966 667.000
35.43011 700.000
35.45057 626.000
35.47103 696.000
35.49149 691.000
35.51195 706.000
35.53241 809.000
35.55287 815.000
35.57333 826.000
35.59378 892.000
35.61424 859.000
35.63470 848.000
35.65516 853.000
35.67562 823.000
35.69608 872.000
35.71654 805.000
35.73699 789.000
35.75745 749.000
35.77791 690.000
35.79837 639.000
35.81883 646.000
35.83929 604.000
35.85975 606.000
35.88020 573.000
35.90066 540.000
35.92112 569.000
35.94158 531.000
35.96204 579.000
35.98250 594.000
36.00296 530.000
36.02342 564.000
36.04387 521.000
36.06433 538.000
36.08479 569.000
36.10525 530.000
36.12571 546.000
36.14617 602.000
36.16663 554.000
36.18708 568.000
36.20754 591.000
36.22800 561.000
36.24846 638.000
36.26892 573.000
36.28938 654.000
36.30984 701.000
36.33030 677.000
36.35075 802.000
36.37121 847.000
36.39167 892.000
36.41213 1106.000
36.43259 1207.000
36.45305 1493.000
36.47351 1793.000
36.49396 1850.000
36.51442 1905.000
36.53488 1752.000
36.55534 1636.000
36.57580 1477.000
36.59626 1388.000
36.61672 1252.000
36.63718 1115.000
36.65763 1001.000
36.67809 903.000
36.69855 826.000
36.71901 814.000
36.73947 850.000
36.75993 804.000
36.78039 798.000
36.80084 768.000
36.82130 746.000
36.84176 730.000
36.86222 685.000
36.88268 729.000
36.90314 701.000
36.92360 711.000
36.94406 625.000
36.96451 641.000
36.98497 714.000
37.00543 670.000
37.02589 624.000
37.04635 619.000
37.06681 589.000
37.08727 544.000
37.10772 552.000
37.12818 537.000
37.14864 513.000
37.16910 522.000
37.18956 500.000
37.21002 495.000
37.23048 493.000
37.25094 465.000
37.27139 500.000
37.29185 466.000
37.31231 511.000
37.33277 437.000
37.35323 491.000
37.37369 440.000
37.39415 429.000
37.41460 469.000
37.43506 430.000
37.45552 416.000
37.47598 434.000
37.49644 433.000
37.51690 418.000
37.53736 448.000
37.55782 433.000
37.57827 399.000
37.59873 423.000
37.61919 428.000
37.63965 396.000
37.66011 416.000
37.68057 406.000
37.70103 432.000
37.72148 437.000
37.74194 431.000
37.76240 426.000
37.78286 435.000
37.80332 441.000
37.82378 398.000
37.84424 392.000
37.86469 410.000
37.88515 403.000
37.90561 337.000
37.92607 342.000
37.94653 408.000
37.96699 367.000
37.98745 366.000
38.00791 365.000
38.02836 322.000
38.04882 342.000
38.06928 338.000
38.08974 364.000
38.11020 331.000
38.13066 385.000
38.15112 386.000
38.17157 343.000
38.19203 360.000
38.21249 328.000
38.23295 315.000
38.25341 301.000
38.27387 328.000
38.29433 329.000
38.31479 312.000
38.33524 360.000
38.35570 304.000
38.37616 346.000
38.39662 307.000
38.41708 342.000
38.43754 332.000
38.45800 312.000
38.47845 369.000
38.49891 351.000
38.51937 376.000
38.53983 336.000
38.56029 331.000
38.58075 394.000
38.60121 335.000
38.62167 378.000
38.64212 343.000
38.66258 353.000
38.68304 311.000
38.70350 277.000
38.72396 327.000
38.74442 333.000
38.76488 356.000
38.78533 337.000
38.80579 352.000
38.82625 332.000
38.84671 328.000
38.86717 346.000
38.88763 303.000
38.90809 364.000
38.92855 362.000
38.94900 361.000
38.96946 345.000
38.98992 334.000
39.01038 346.000
39.03084 374.000
39.05130 358.000
39.07176 364.000
39.09221 390.000
39.11267 384.000
39.13313 406.000
39.15359 385.000
39.17405 413.000
39.19451 440.000
39.21497 479.000
39.23543 474.000
39.25588 507.000
39.27634 554.000
39.29680 575.000
39.31726 655.000
39.33772 756.000
39.35818 925.000
39.37864 1146.000
39.39909 1367.000
39.41955 1534.000
39.44001 1545.000
39.46047 1338.000
39.48093 1168.000
39.50139 1033.000
39.52185 1041.000
39.54231 908.000
39.56276 790.000
39.58322 590.000
39.60368 466.000
39.62414 425.000
39.64460 400.000
39.66506 358.000
39.68552 355.000
39.70597 364.000
39.72643 361.000
39.74689 345.000
39.76735 297.000
39.78781 322.000
39.80827 337.000
39.82873 343.000
39.84918 341.000
39.86964 375.000
39.89010 337.000
39.91056 347.000
39.93102 322.000
39.95148 325.000
39.97194 331.000
39.99240 340.000
40.01285 382.000
40.03331 368.000
40.05377 371.000
40.07423 395.000
40.09469 406.000
40.11515 433.000
40.13561 458.000
40.15606 570.000
40.17652 644.000
40.19698 706.000
40.21744 817.000
40.23790 879.000
40.25836 898.000
40.27882 841.000
40.29928 755.000
40.31973 716.000
40.34019 689.000
40.36065 701.000
40.38111 583.000
40.40157 545.000
40.42203 461.000
40.44249 439.000
40.46294 404.000
40.48340 439.000
40.50386 403.000
40.52432 404.000
40.54478 419.000
40.56524 423.000
40.58570 472.000
40.60616 481.000
40.62661 458.000
40.64707 494.000
40.66753 526.000
40.68799 574.000
40.70845 606.000
40.72891 613.000
40.74937 612.000
40.76982 636.000
40.79028 720.000
40.81074 737.000
40.83120 733.000
40.85166 777.000
40.87212 729.000
40.89258 702.000
40.91304 629.000
40.93349 666.000
40.95395 651.000
40.97441 599.000
40.99487 555.000
41.01533 533.000
41.03579 505.000
41.05625 497.000
41.07670 438.000
41.09716 475.000
41.11762 493.000
41.13808 443.000
41.15854 442.000
41.17900 430.000
41.19946 414.000
41.21992 375.000
41.24037 392.000
41.26083 398.000
41.28129 376.000
41.30175 362.000
41.32221 364.000
41.34267 368.000
41.36313 362.000
41.38358 343.000
41.40404 326.000
41.42450 332.000
41.44496 349.000
41.46542 345.000
41.48588 353.000
41.50634 298.000
41.52680 342.000
41.54725 335.000
41.56771 322.000
41.58817 323.000
41.60863 334.000
41.62909 315.000
41.64955 313.000
41.67001 293.000
41.69046 321.000
41.71092 323.000
41.73138 302.000
41.75184 306.000
41.77230 295.000
41.79276 354.000
41.81322 314.000
41.83367 340.000
41.85413 313.000
41.87459 337.000
41.89505 343.000
41.91551 335.000
41.93597 311.000
41.95643 379.000
41.97689 335.000
41.99734 348.000
42.01780 340.000
42.03826 354.000
42.05872 310.000
42.07918 373.000
42.09964 362.000
42.12010 362.000
42.14055 335.000
42.16101 452.000
42.18147 429.000
42.20193 457.000
42.22239 469.000
42.24285 507.000
42.26331 493.000
42.28377 592.000
42.30422 664.000
42.32468 766.000
42.34514 957.000
42.36560 1079.000
42.38606 1144.000
42.40652 1220.000
42.42698 1212.000
42.44743 1136.000
42.46789 1025.000
42.48835 987.000
42.50881 852.000
42.52927 790.000
42.54973 762.000
42.57019 640.000
42.59065 534.000
42.61110 484.000
42.63156 433.000
42.65202 421.000
42.67248 429.000
42.69294 408.000
42.71340 374.000
42.73386 371.000
42.75431 396.000
42.77477 361.000
42.79523 387.000
42.81569 336.000
42.83615 378.000
42.85661 376.000
42.87707 373.000
42.89753 364.000
42.91798 382.000
42.93844 369.000
42.95890 369.000
42.97936 338.000
42.99982 337.000
43.02028 369.000
43.04074 367.000
43.06119 362.000
43.08165 359.000
43.10211 370.000
43.12257 344.000
43.14303 365.000
43.16349 343.000
43.18395 334.000
43.20441 342.000
43.22486 326.000
43.24532 337.000
43.26578 329.000
43.28624 319.000
43.30670 336.000
43.32716 324.000
43.34762 354.000
43.36807 336.000
43.38853 339.000
43.40899 331.000
43.42945 344.000
43.44991 320.000
43.47037 339.000
43.49083 322.000
43.51129 306.000
43.53174 325.000
43.55220 323.000
43.57266 309.000
43.59312 338.000
43.61358 302.000
43.63404 314.000
43.65450 352.000
43.67495 326.000
43.69541 315.000
43.71587 299.000
43.73633 320.000
43.75679 342.000
43.77725 302.000
43.79771 322.000
43.81817 296.000
43.83862 307.000
43.85908 336.000
43.87954 292.000
43.90000 312.000
43.92046 341.000
43.94092 304.000
43.96138 333.000
43.98183 318.000
44.00229 336.000
44.02275 301.000
44.04321 342.000
44.06367 348.000
44.08413 333.000
44.10459 369.000
44.12504 374.000
44.14550 327.000
44.16596 355.000
44.18642 345.000
44.20688 325.000
44.22734 367.000
44.24780 407.000
44.26826 355.000
44.28871 399.000
44.30917 419.000
44.32963 397.000
44.35009 406.000
44.37055 401.000
44.39101 438.000
44.41147 369.000
44.43192 452.000
44.45238 485.000
44.47284 439.000
44.49330 431.000
44.51376 446.000
44.53422 417.000
44.55468 470.000
44.57514 496.000
44.59559 490.000
44.61605 483.000
44.63651 456.000
44.65697 481.000
44.67743 476.000
44.69789 492.000
44.71835 465.000
44.73880 470.000
44.75926 450.000
44.77972 475.000
44.80018 455.000
44.82064 478.000
44.84110 486.000
44.86156 453.000
44.88202 446.000
44.90247 460.000
44.92293 424.000
44.94339 441.000
44.96385 432.000
44.98431 471.000
45.00477 453.000
45.02523 462.000
45.04568 444.000
45.06614 380.000
45.08660 389.000
45.10706 411.000
45.12752 391.000
45.14798 400.000
45.16844 374.000
45.18890 365.000
45.20935 378.000
45.22981 406.000
45.25027 391.000
45.27073 429.000
45.29119 370.000
45.31165 380.000
45.33211 376.000
45.35256 401.000
45.37302 375.000
45.39348 376.000
45.41394 351.000
45.43440 377.000
45.45486 404.000
45.47532 348.000
45.49578 427.000
45.51623 435.000
45.53669 387.000
45.55715 408.000
45.57761 446.000
45.59807 465.000
45.61853 506.000
45.63899 590.000
45.65944 676.000
45.67990 706.000
45.70036 837.000
45.72082 960.000
45.74128 972.000
45.76174 920.000
45.78220 890.000
45.80266 759.000
45.82311 682.000
45.84357 640.000
45.86403 657.000
45.88449 623.000
45.90495 553.000
45.92541 522.000
45.94587 431.000
45.96632 390.000
45.98678 382.000
46.00724 374.000
46.02770 347.000
46.04816 328.000
46.06862 344.000
46.08908 348.000
46.10953 338.000
46.12999 310.000
46.15045 295.000
46.17091 352.000
46.19137 318.000
46.21183 337.000
46.23229 314.000
46.25275 327.000
46.27320 328.000
46.29366 318.000
46.31412 296.000
46.33458 312.000
46.35504 314.000
46.37550 326.000
46.39596 336.000
46.41641 322.000
46.43687 293.000
46.45733 302.000
46.47779 288.000
46.49825 268.000
46.51871 332.000
46.53917 298.000
46.55963 303.000
46.58008 297.000
46.60054 286.000
46.62100 297.000
46.64146 298.000
46.66192 287.000
46.68238 302.000
46.70284 302.000
46.72329 284.000
46.74375 303.000
46.76421 287.000
46.78467 299.000
46.80513 298.000
46.82559 288.000
46.84605 281.000
46.86651 314.000
46.88696 326.000
46.90742 294.000
46.92788 311.000
46.94834 277.000
46.96880 310.000
46.98926 293.000
47.00972 252.000
47.03017 287.000
47.05063 284.000
47.07109 300.000
47.09155 302.000
47.11201 292.000
47.13247 310.000
47.15293 304.000
47.17339 254.000
47.19384 283.000
47.21430 264.000
47.23476 278.000
47.25522 292.000
47.27568 304.000
47.29614 272.000
47.31660 253.000
47.33705 302.000
47.35751 312.000
47.37797 289.000
47.39843 262.000
47.41889 285.000
47.43935 264.000
47.45981 308.000
47.48027 275.000
47.50072 303.000
47.52118 297.000
47.54164 276.000
47.56210 291.000
47.58256 293.000
47.60302 296.000
47.62348 275.000
47.64393 266.000
47.66439 260.000
47.68485 273.000
47.70531 294.000
47.72577 299.000
47.74623 332.000
47.76669 317.000
47.78715 314.000
47.80760 314.000
47.82806 304.000
47.84852 311.000
47.86898 332.000
47.88944 320.000
47.90990 385.000
47.93036 335.000
47.95081 391.000
47.97127 434.000
47.99173 393.000
48.01219 390.000
48.03265 394.000
48.05311 393.000
48.07357 376.000
48.09402 352.000
48.11448 354.000
48.13494 359.000
48.15540 343.000
48.17586 341.000
48.19632 358.000
48.21678 330.000
48.23724 306.000
48.25769 312.000
48.27815 316.000
48.29861 312.000
48.31907 300.000
48.33953 311.000
48.35999 301.000
48.38045 310.000
48.40090 275.000
48.42136 296.000
48.44182 291.000
48.46228 299.000
48.48274 280.000
48.50320 317.000
48.52366 290.000
48.54412 299.000
48.56457 283.000
48.58503 290.000
48.60549 297.000
48.62595 306.000
48.64641 296.000
48.66687 297.000
48.68733 299.000
48.70778 319.000
48.72824 310.000
48.74870 316.000
48.76916 313.000
48.78962 302.000
48.81008 289.000
48.83054 272.000
48.85100 310.000
48.87145 299.000
48.89191 317.000
48.91237 289.000
48.93283 315.000
48.95329 329.000
48.97375 310.000
48.99421 320.000
49.01466 346.000
49.03512 311.000
49.05558 309.000
49.07604 337.000
49.09650 309.000
49.11696 350.000
49.13742 343.000
49.15788 350.000
49.17833 383.000
49.19879 357.000
49.21925 369.000
49.23971 393.000
49.26017 427.000
49.28063 414.000
49.30109 410.000
49.32154 410.000
49.34200 469.000
49.36246 452.000
49.38292 462.000
49.40338 449.000
49.42384 514.000
49.44430 548.000
49.46476 478.000
49.48521 495.000
49.50567 493.000
49.52613 496.000
49.54659 465.000
49.56705 446.000
49.58751 404.000
49.60797 418.000
49.62842 401.000
49.64888 403.000
49.66934 403.000
49.68980 396.000
49.71026 399.000
49.73072 402.000
49.75118 383.000
49.77164 399.000
49.79209 462.000
49.81255 404.000
49.83301 458.000
49.85347 482.000
49.87393 483.000
49.89439 581.000
49.91485 608.000
49.93530 714.000
49.95576 843.000
49.97622 1008.000
49.99668 1204.000
50.01714 1569.000
50.03760 1927.000
50.05806 2407.000
50.07851 2769.000
50.09897 2751.000
50.11943 2707.000
50.13989 2105.000
50.16035 1738.000
50.18081 1648.000
50.20127 1643.000
50.22173 1573.000
50.24218 1401.000
50.26264 1169.000
50.28310 942.000
50.30356 615.000
50.32402 486.000
50.34448 461.000
50.36494 413.000
50.38539 367.000
50.40585 360.000
50.42631 340.000
50.44677 335.000
50.46723 346.000
50.48769 302.000
50.50815 299.000
50.52861 337.000
50.54906 342.000
50.56952 334.000
50.58998 375.000
50.61044 339.000
50.63090 294.000
50.65136 305.000
50.67182 339.000
50.69227 310.000
50.71273 308.000
50.73319 323.000
50.75365 294.000
50.77411 265.000
50.79457 277.000
50.81503 298.000
50.83549 315.000
50.85594 319.000
50.87640 274.000
50.89686 270.000
50.91732 298.000
50.93778 289.000
50.95824 254.000
50.97870 268.000
50.99915 272.000
51.01961 306.000
51.04007 285.000
51.06053 291.000
51.08099 269.000
51.10145 301.000
51.12191 276.000
51.14237 278.000
51.16282 280.000
51.18328 305.000
51.20374 297.000
51.22420 267.000
51.24466 312.000
51.26512 258.000
51.28558 269.000
51.30603 266.000
51.32649 262.000
51.34695 320.000
51.36741 262.000
51.38787 260.000
51.40833 272.000
51.42879 294.000
51.44925 267.000
51.46970 249.000
51.49016 260.000
51.51062 265.000
51.53108 266.000
51.55154 288.000
51.57200 259.000
51.59246 262.000
51.61291 280.000
51.63337 282.000
51.65383 256.000
51.67429 273.000
51.69475 252.000
51.71521 260.000
51.73567 269.000
51.75613 292.000
51.77658 269.000
51.79704 260.000
51.81750 302.000
51.83796 289.000
51.85842 288.000
51.87888 254.000
51.89934 279.000
51.91979 296.000
51.94025 269.000
51.96071 283.000
51.98117 260.000
52.00163 258.000
52.02209 289.000
52.04255 281.000
52.06301 276.000
52.08346 258.000
52.10392 261.000
52.12438 267.000
52.14484 265.000
52.16530 296.000
52.18576 297.000
52.20622 319.000
52.22667 255.000
52.24713 279.000
52.26759 310.000
52.28805 287.000
52.30851 310.000
52.32897 318.000
52.34943 278.000
52.36988 274.000
52.39034 280.000
52.41080 280.000
52.43126 329.000
52.45172 269.000
52.47218 296.000
52.49264 290.000
52.51310 261.000
52.53355 290.000
52.55401 283.000
52.57447 281.000
52.59493 274.000
52.61539 287.000
52.63585 256.000
52.65631 294.000
52.67676 294.000
52.69722 267.000
52.71768 291.000
52.73814 293.000
52.75860 274.000
52.77906 292.000
52.79952 278.000
52.81998 295.000
52.84043 319.000
52.86089 295.000
52.88135 288.000
52.90181 307.000
52.92227 351.000
52.94273 321.000
52.96319 292.000
52.98364 274.000
53.00410 309.000
53.02456 300.000
53.04502 280.000
53.06548 293.000
53.08594 316.000
53.10640 339.000
53.12686 339.000
53.14731 328.000
53.16777 326.000
53.18823 365.000
53.20869 365.000
53.22915 346.000
53.24961 363.000
53.27007 335.000
53.29052 363.000
53.31098 376.000
53.33144 340.000
53.35190 394.000
53.37236 362.000
53.39282 376.000
53.41328 379.000
53.43374 343.000
53.45419 366.000
53.47465 357.000
53.49511 404.000
53.51557 382.000
53.53603 406.000
53.55649 412.000
53.57695 422.000
53.59740 413.000
53.61786 394.000
53.63832 415.000
53.65878 418.000
53.67924 439.000
53.69970 438.000
53.72016 466.000
53.74062 478.000
53.76107 523.000
53.78153 512.000
53.80199 519.000
53.82245 501.000
53.84291 565.000
53.86337 557.000
53.88383 578.000
53.90428 579.000
53.92474 612.000
53.94520 617.000
53.96566 655.000
53.98612 602.000
54.00658 652.000
54.02704 669.000
54.04750 638.000
54.06795 677.000
54.08841 621.000
54.10887 574.000
54.12933 592.000
54.14979 576.000
54.17025 565.000
54.19071 559.000
54.21116 560.000
54.23162 535.000
54.25208 514.000
54.27254 507.000
54.29300 496.000
54.31346 498.000
54.33392 472.000
54.35437 482.000
54.37483 458.000
54.39529 442.000
54.41575 438.000
54.43621 443.000
54.45667 421.000
54.47713 412.000
54.49759 421.000
54.51804 381.000
54.53850 416.000
54.55896 365.000
54.57942 428.000
54.59988 409.000
54.62034 431.000
54.64080 465.000
54.66125 505.000
54.68171 514.000
54.70217 577.000
54.72263 637.000
54.74309 752.000
54.76355 839.000
54.78401 961.000
54.80447 987.000
54.82492 1090.000
54.84538 1022.000
54.86584 971.000
54.88630 828.000
54.90676 782.000
54.92722 767.000
54.94768 733.000
54.96813 744.000
54.98859 745.000
55.00905 712.000
55.02951 626.000
55.04997 584.000
55.07043 498.000
55.09089 473.000
55.11135 520.000
55.13180 496.000
55.15226 487.000
55.17272 551.000
55.19318 544.000
55.21364 583.000
55.23410 606.000
55.25456 627.000
55.27501 675.000
55.29547 705.000
55.31593 661.000
55.33639 603.000
55.35685 573.000
55.37731 512.000
55.39777 501.000
55.41823 556.000
55.43868 504.000
55.45914 483.000
55.47960 477.000
55.50006 457.000
55.52052 400.000
55.54098 350.000
55.56144 387.000
55.58189 404.000
55.60235 369.000
55.62281 384.000
55.64327 354.000
55.66373 341.000
55.68419 371.000
55.70465 368.000
55.72511 362.000
55.74556 326.000
55.76602 387.000
55.78648 377.000
55.80694 339.000
55.82740 369.000
55.84786 369.000
55.86832 334.000
55.88877 370.000
55.90923 317.000
55.92969 336.000
55.95015 353.000
55.97061 367.000
55.99107 393.000
56.01153 354.000
56.03199 353.000
56.05244 324.000
56.07290 336.000
56.09336 326.000
56.11382 360.000
56.13428 353.000
56.15474 330.000
56.17520 347.000
56.19565 347.000
56.21611 342.000
56.23657 350.000
56.25703 337.000
56.27749 322.000
56.29795 340.000
56.31841 325.000
56.33886 347.000
56.35932 327.000
56.37978 352.000
56.40024 363.000
56.42070 341.000
56.44116 353.000
56.46162 345.000
56.48208 372.000
56.50253 374.000
56.52299 393.000
56.54345 351.000
56.56391 397.000
56.58437 384.000
56.60483 392.000
56.62529 364.000
56.64574 383.000
56.66620 377.000
56.68666 325.000
56.70712 365.000
56.72758 367.000
56.74804 358.000
56.76850 394.000
56.78896 329.000
56.80941 381.000
56.82987 371.000
56.85033 338.000
56.87079 359.000
56.89125 405.000
56.91171 365.000
56.93217 398.000
56.95262 382.000
56.97308 409.000
56.99354 409.000
57.01400 394.000
57.03446 392.000
57.05492 423.000
57.07538 394.000
57.09584 411.000
57.11629 415.000
57.13675 416.000
57.15721 472.000
57.17767 414.000
57.19813 429.000
57.21859 419.000
57.23905 466.000
57.25950 476.000
57.27996 420.000
57.30042 458.000
57.32088 462.000
57.34134 424.000
57.36180 452.000
57.38226 466.000
57.40272 459.000
57.42317 471.000
57.44363 469.000
57.46409 468.000
57.48455 493.000
57.50501 474.000
57.52547 480.000
57.54593 477.000
57.56638 504.000
57.58684 502.000
57.60730 490.000
57.62776 461.000
57.64822 464.000
57.66868 462.000
57.68914 432.000
57.70960 454.000
57.73005 429.000
57.75051 424.000
57.77097 413.000
57.79143 419.000
57.81189 432.000
57.83235 408.000
57.85281 403.000
57.87326 404.000
57.89372 417.000
57.91418 374.000
57.93464 369.000
57.95510 373.000
57.97556 428.000
57.99602 385.000
58.01648 383.000
58.03693 382.000
58.05739 416.000
58.07785 416.000
58.09831 390.000
58.11877 385.000
58.13923 408.000
58.15969 417.000
58.18014 415.000
58.20060 422.000
58.22106 414.000
58.24152 373.000
58.26198 438.000
58.28244 374.000
58.30290 400.000
58.32335 440.000
58.34381 406.000
58.36427 402.000
58.38473 417.000
58.40519 405.000
58.42565 405.000
58.44611 438.000
58.46657 404.000
58.48702 453.000
58.50748 436.000
58.52794 450.000
58.54840 413.000
58.56886 449.000
58.58932 421.000
58.60978 458.000
58.63023 407.000
58.65069 410.000
58.67115 390.000
58.69161 418.000
58.71207 458.000
58.73253 467.000
58.75299 436.000
58.77345 433.000
58.79390 423.000
58.81436 466.000
58.83482 518.000
58.85528 512.000
58.87574 500.000
58.89620 484.000
58.91666 501.000
58.93711 513.000
58.95757 521.000
58.97803 516.000
58.99849 520.000
59.01895 495.000
59.03941 526.000
59.05987 505.000
59.08033 515.000
59.10078 533.000
59.12124 487.000
59.14170 499.000
59.16216 476.000
59.18262 494.000
59.20308 492.000
59.22354 517.000
59.24399 519.000
59.26445 561.000
59.28491 509.000
59.30537 518.000
59.32583 512.000
59.34629 477.000
59.36675 463.000
59.38721 486.000
59.40766 509.000
59.42812 515.000
59.44858 488.000
59.46904 563.000
59.48950 552.000
59.50996 531.000
59.53042 567.000
59.55087 572.000
59.57133 588.000
59.59179 571.000
59.61225 610.000
59.63271 633.000
59.65317 622.000
59.67363 691.000
59.69409 687.000
59.71454 783.000
59.73500 818.000
59.75546 936.000
59.77592 1108.000
59.79638 1253.000
59.81684 1355.000
59.83730 1636.000
59.85775 1802.000
59.87821 2091.000
59.89867 2195.000
59.91913 2191.000
59.93959 2024.000
59.96005 1884.000
59.98051 1570.000
60.00097 1422.000
60.02142 1367.000
60.04188 1331.000
60.06234 1360.000
60.08280 1296.000
60.10326 1221.000
60.12372 993.000
60.14418 878.000
60.16463 772.000
60.18509 625.000
60.20555 654.000
60.22601 571.000
60.24647 541.000
60.26693 560.000
60.28739 567.000
60.30784 560.000
60.32830 549.000
60.34876 561.000
60.36922 544.000
60.38968 576.000
60.41014 576.000
60.43060 606.000
60.45106 593.000
60.47151 597.000
60.49197 652.000
60.51243 647.000
60.53289 648.000
60.55335 650.000
60.57381 657.000
60.59427 662.000
60.61472 665.000
60.63518 671.000
60.65564 650.000
60.67610 639.000
60.69656 592.000
60.71702 605.000
60.73748 609.000
60.75794 598.000
60.77839 607.000
60.79885 541.000
60.81931 546.000
60.83977 536.000
60.86023 539.000
60.88069 532.000
60.90115 531.000
60.92160 541.000
60.94206 536.000
60.96252 489.000
60.98298 481.000
61.00344 450.000
61.02390 491.000
61.04436 447.000
61.06482 477.000
61.08527 475.000
61.10573 439.000
61.12619 462.000
61.14665 444.000
61.16711 468.000
61.18757 432.000
61.20803 416.000
61.22848 407.000
61.24894 444.000
61.26940 400.000
61.28986 444.000
61.31032 361.000
61.33078 395.000
61.35124 401.000
61.37170 403.000
61.39215 396.000
61.41261 403.000
61.43307 406.000
61.45353 385.000
61.47399 443.000
61.49445 431.000
61.51491 384.000
61.53536 368.000
61.55582 360.000
61.57628 432.000
61.59674 410.000
61.61720 443.000
61.63766 403.000
61.65812 410.000
61.67858 362.000
61.69903 376.000
61.71949 369.000
61.73995 369.000
61.76041 421.000
61.78087 385.000
61.80133 408.000
61.82179 389.000
61.84224 432.000
61.86270 403.000
61.88316 401.000
61.90362 415.000
61.92408 383.000
61.94454 400.000
61.96500 418.000
61.98546 395.000
62.00591 424.000
62.02637 380.000
62.04683 420.000
62.06729 404.000
62.08775 411.000
62.10821 409.000
62.12867 428.000
62.14912 428.000
62.16958 484.000
62.19004 454.000
62.21050 483.000
62.23096 454.000
62.25142 513.000
62.27188 456.000
62.29234 467.000
62.31279 516.000
62.33325 499.000
62.35371 528.000
62.37417 526.000
62.39463 548.000
62.41509 518.000
62.43555 540.000
62.45600 519.000
62.47646 570.000
62.49692 518.000
62.51738 505.000
62.53784 565.000
62.55830 548.000
62.57876 521.000
62.59921 502.000
62.61967 528.000
62.64013 505.000
62.66059 532.000
62.68105 511.000
62.70151 481.000
62.72197 534.000
62.74243 484.000
62.76288 481.000
62.78334 470.000
62.80380 480.000
62.82426 481.000
62.84472 440.000
62.86518 477.000
62.88564 463.000
62.90609 467.000
62.92655 451.000
62.94701 469.000
62.96747 480.000
62.98793 478.000
63.00839 437.000
63.02885 431.000
63.04931 449.000
63.06976 453.000
63.09022 424.000
63.11068 414.000
63.13114 495.000
63.15160 431.000
63.17206 462.000
63.19252 449.000
63.21297 453.000
63.23343 446.000
63.25389 460.000
63.27435 430.000
63.29481 445.000
63.31527 481.000
63.33573 438.000
63.35619 442.000
63.37664 496.000
63.39710 471.000
63.41756 474.000
63.43802 462.000
63.45848 464.000
63.47894 451.000
63.49940 478.000
63.51985 486.000
63.54031 497.000
63.56077 465.000
63.58123 453.000
63.60169 451.000
63.62215 448.000
63.64261 523.000
63.66307 512.000
63.68352 478.000
63.70398 501.000
63.72444 493.000
63.74490 474.000
63.76536 461.000
63.78582 533.000
63.80628 542.000
63.82673 621.000
63.84719 610.000
63.86765 643.000
63.88811 663.000
63.90857 776.000
63.92903 774.000
63.94949 883.000
63.96995 810.000
63.99040 928.000
64.01086 810.000
64.03132 787.000
64.05178 753.000
64.07224 742.000
64.09270 673.000
64.11316 680.000
64.13361 715.000
64.15407 703.000
64.17453 725.000
64.19499 721.000
64.21545 606.000
64.23591 602.000
64.25637 563.000
64.27683 553.000
64.29728 563.000
64.31774 562.000
64.33820 549.000
64.35866 553.000
64.37912 574.000
64.39958 591.000
64.42004 591.000
64.44049 591.000
64.46095 587.000
64.48141 624.000
64.50187 623.000
64.52233 675.000
64.54279 628.000
64.56325 682.000
64.58370 661.000
64.60416 702.000
64.62462 701.000
64.64508 635.000
64.66554 657.000
64.68600 681.000
64.70646 629.000
64.72692 672.000
64.74737 668.000
64.76783 718.000
64.78829 682.000
64.80875 670.000
64.82921 694.000
64.84967 668.000
64.87013 654.000
64.89058 704.000
64.91104 690.000
64.93150 695.000
64.95196 664.000
64.97242 649.000
64.99288 676.000
65.01334 650.000
65.03380 679.000
65.05425 682.000
65.07471 665.000
65.09517 639.000
65.11563 638.000
65.13609 636.000
65.15655 632.000
65.17701 692.000
65.19746 628.000
65.21792 605.000
65.23838 621.000
65.25884 630.000
65.27930 606.000
65.29976 600.000
65.32022 599.000
65.34068 610.000
65.36113 616.000
65.38159 631.000
65.40205 587.000
65.42251 576.000
65.44297 593.000
65.46343 599.000
65.48389 571.000
65.50434 539.000
65.52480 552.000
65.54526 591.000
65.56572 576.000
65.58618 590.000
65.60664 596.000
65.62710 608.000
65.64756 636.000
65.66801 609.000
65.68847 573.000
65.70893 615.000
65.72939 652.000
65.74985 631.000
65.77031 601.000
65.79077 594.000
65.81122 515.000
65.83168 562.000
65.85214 564.000
65.87260 566.000
65.89306 573.000
65.91352 561.000
65.93398 533.000
65.95444 548.000
65.97489 538.000
65.99535 539.000
66.01581 535.000
66.03627 536.000
66.05673 524.000
66.07719 493.000
66.09765 522.000
66.11810 557.000
66.13856 519.000
66.15902 530.000
66.17948 550.000
66.19994 510.000
66.22040 521.000
66.24086 519.000
66.26132 512.000
66.28177 541.000
66.30223 516.000
66.32269 532.000
66.34315 524.000
66.36361 522.000
66.38407 506.000
66.40453 522.000
66.42498 521.000
66.44544 497.000
66.46590 529.000
66.48636 533.000
66.50682 493.000
66.52728 523.000
66.54774 532.000
66.56819 533.000
66.58865 494.000
66.60911 510.000
66.62957 507.000
66.65003 450.000
66.67049 476.000
66.69095 497.000
66.71141 485.000
66.73186 457.000
66.75232 496.000
66.77278 515.000
66.79324 462.000
66.81370 454.000
66.83416 479.000
66.85462 477.000
66.87507 506.000
66.89553 448.000
66.91599 504.000
66.93645 493.000
66.95691 447.000
66.97737 485.000
66.99783 469.000
67.01829 490.000
67.03874 449.000
67.05920 485.000
67.07966 457.000
67.10012 435.000
67.12058 493.000
67.14104 452.000
67.16150 491.000
67.18195 467.000
67.20241 494.000
67.22287 470.000
67.24333 486.000
67.26379 463.000
67.28425 476.000
67.30471 482.000
67.32517 512.000
67.34562 508.000
67.36608 476.000
67.38654 508.000
67.40700 498.000
67.42746 581.000
67.44792 558.000
67.46838 597.000
67.48883 631.000
67.50929 645.000
67.52975 769.000
67.55021 807.000
67.57067 881.000
67.59113 987.000
67.61159 1137.000
67.63205 1341.000
67.65250 1385.000
67.67296 1414.000
67.69342 1473.000
67.71388 1418.000
67.73434 1218.000
67.75480 1118.000
67.77526 1056.000
67.79571 1010.000
67.81617 1003.000
67.83663 1098.000
67.85709 1119.000
67.87755 1135.000
67.89801 1111.000
67.91847 1086.000
67.93893 1079.000
67.95938 1125.000
67.97984 1158.000
68.00030 1313.000
68.02076 1476.000
68.04122 1705.000
68.06168 1873.000
68.08214 2034.000
68.10259 2005.000
68.12305 1944.000
68.14351 1778.000
68.16397 1688.000
68.18443 1565.000
68.20489 1707.000
68.22535 1704.000
68.24581 1757.000
68.26626 1819.000
68.28672 1755.000
68.30718 1621.000
68.32764 1333.000
68.34810 1138.000
68.36856 1042.000
68.38902 948.000
68.40947 860.000
68.42993 869.000
68.45039 803.000
68.47085 769.000
68.49131 706.000
68.51177 612.000
68.53223 629.000
68.55268 520.000
68.57314 530.000
68.59360 449.000
68.61406 387.000
68.63452 423.000
68.65498 393.000
68.67544 406.000
68.69590 410.000
68.71635 392.000
68.73681 400.000
68.75727 424.000
68.77773 422.000
68.79819 421.000
68.81865 430.000
68.83911 385.000
68.85956 369.000
68.88002 394.000
68.90048 392.000
68.92094 385.000
68.94140 390.000
68.96186 390.000
68.98232 411.000
69.00278 377.000
69.02323 387.000
69.04369 399.000
69.06415 361.000
69.08461 366.000
69.10507 367.000
69.12553 367.000
69.14599 381.000
69.16644 387.000
69.18690 405.000
69.20736 379.000
69.22782 383.000
69.24828 372.000
69.26874 361.000
69.28920 377.000
69.30966 398.000
69.33011 382.000
69.35057 363.000
69.37103 379.000
69.39149 402.000
69.41195 379.000
69.43241 348.000
69.45287 372.000
69.47332 404.000
69.49378 404.000
69.51424 359.000
69.53470 394.000
69.55516 379.000
69.57562 400.000
69.59608 406.000
69.61654 417.000
69.63699 398.000
69.65745 388.000
69.67791 384.000
69.69837 399.000
69.71883 403.000
69.73929 437.000
69.75975 407.000
69.78020 387.000
69.80066 350.000
69.82112 379.000
69.84158 390.000
69.86204 390.000
69.88250 375.000
69.90296 391.000
69.92342 406.000
69.94387 378.000
69.96433 395.000
69.98479 360.000
70.00525 379.000
70.02571 408.000
70.04617 362.000
70.06663 393.000
70.08708 407.000
70.10754 437.000
70.12800 412.000
70.14846 386.000
70.16892 408.000
70.18938 393.000
70.20984 389.000
70.23030 415.000
70.25075 430.000
70.27121 449.000
70.29167 462.000
70.31213 410.000
70.33259 434.000
70.35305 411.000
70.37351 456.000
70.39396 460.000
70.41442 414.000
70.43488 388.000
70.45534 414.000
70.47580 428.000
70.49626 430.000
70.51672 388.000
70.53717 391.000
70.55763 408.000
70.57809 410.000
70.59855 426.000
70.61901 429.000
70.63947 404.000
70.65993 399.000
70.68039 398.000
70.70084 383.000
70.72130 381.000
70.74176 349.000
70.76222 418.000
70.78268 447.000
70.80314 390.000
70.82360 435.000
70.84405 408.000
70.86451 403.000
70.88497 411.000
70.90543 400.000
70.92589 395.000
70.94635 419.000
70.96681 369.000
70.98727 392.000
71.00772 373.000
71.02818 410.000
71.04864 425.000
71.06910 409.000
71.08956 402.000
71.11002 366.000
71.13048 390.000
71.15093 422.000
71.17139 394.000
71.19185 419.000
71.21231 333.000
71.23277 342.000
71.25323 375.000
71.27369 400.000
71.29415 388.000
71.31460 370.000
71.33506 379.000
71.35552 389.000
71.37598 367.000
71.39644 384.000
71.41690 363.000
71.43736 358.000
71.45781 351.000
71.47827 355.000
71.49873 362.000
71.51919 383.000
71.53965 370.000
71.56011 370.000
71.58057 384.000
71.60103 362.000
71.62148 371.000
71.64194 319.000
71.66240 366.000
71.68286 344.000
71.70332 346.000
71.72378 392.000
71.74424 404.000
71.76469 383.000
71.78515 406.000
71.80561 399.000
71.82607 395.000
71.84653 381.000
71.86699 396.000
71.88745 427.000
71.90791 396.000
71.92836 405.000
71.94882 417.000
71.96928 419.000
71.98974 361.000
72.01020 389.000
72.03066 379.000
72.05112 375.000
72.07157 428.000
72.09203 381.000
72.11249 362.000
72.13295 393.000
72.15341 340.000
72.17387 381.000
72.19433 384.000
72.21479 357.000
72.23524 352.000
72.25570 344.000
72.27616 364.000
72.29662 358.000
72.31708 353.000
72.33754 352.000
72.35800 354.000
72.37845 361.000
72.39891 337.000
72.41937 338.000
72.43983 327.000
72.46029 320.000
72.48075 332.000
72.50121 340.000
72.52167 341.000
72.54212 337.000
72.56258 337.000
72.58304 348.000
72.60350 357.000
72.62396 363.000
72.64442 351.000
72.66488 314.000
72.68533 347.000
72.70579 374.000
72.72625 321.000
72.74671 345.000
72.76717 327.000
72.78763 330.000
72.80809 348.000
72.82854 333.000
72.84900 354.000
72.86946 320.000
72.88992 323.000
72.91038 352.000
72.93084 329.000
72.95130 346.000
72.97176 327.000
72.99221 333.000
73.01267 340.000
73.03313 313.000
73.05359 357.000
73.07405 346.000
73.09451 366.000
73.11497 347.000
73.13542 360.000
73.15588 378.000
73.17634 383.000
73.19680 380.000
73.21726 400.000
73.23772 423.000
73.25818 428.000
73.27864 446.000
73.29909 504.000
73.31955 582.000
73.34001 551.000
73.36047 634.000
73.38093 732.000
73.40139 743.000
73.42185 775.000
73.44230 747.000
73.46276 672.000
73.48322 589.000
73.50368 557.000
73.52414 545.000
73.54460 572.000
73.56506 550.000
73.58552 545.000
73.60597 593.000
73.62643 551.000
73.64689 615.000
73.66735 557.000
73.68781 478.000
73.70827 449.000
73.72873 458.000
73.74918 405.000
73.76964 433.000
73.79010 407.000
73.81056 421.000
73.83102 395.000
73.85148 413.000
73.87194 443.000
73.89240 409.000
73.91285 391.000
73.93331 426.000
73.95377 424.000
73.97423 417.000
73.99469 436.000
74.01515 456.000
74.03561 436.000
74.05606 428.000
74.07652 433.000
74.09698 443.000
74.11744 460.000
74.13790 424.000
74.15836 437.000
74.17882 430.000
74.19928 428.000
74.21973 436.000
74.24019 416.000
74.26065 421.000
74.28111 431.000
74.30157 421.000
74.32203 441.000
74.34249 481.000
74.36294 413.000
74.38340 446.000
74.40386 399.000
74.42432 439.000
74.44478 435.000
74.46524 409.000
74.48570 436.000
74.50616 410.000
74.52661 414.000
74.54707 416.000
74.56753 400.000
74.58799 425.000
74.60845 432.000
74.62891 393.000
74.64937 441.000
74.66982 434.000
74.69028 466.000
74.71074 430.000
74.73120 425.000
74.75166 451.000
74.77212 406.000
74.79258 451.000
74.81303 417.000
74.83349 440.000
74.85395 477.000
74.87441 444.000
74.89487 462.000
74.91533 454.000
74.93579 462.000
74.95625 518.000
74.97670 479.000
74.99716 523.000
75.01762 480.000
75.03808 472.000
75.05854 459.000
75.07900 474.000
75.09946 516.000
75.11991 485.000
75.14037 485.000
75.16083 470.000
75.18129 476.000
75.20175 490.000
75.22221 456.000
75.24267 487.000
75.26313 541.000
75.28358 474.000
75.30404 485.000
75.32450 479.000
75.34496 495.000
75.36542 510.000
75.38588 548.000
75.40634 566.000
75.42679 594.000
75.44725 625.000
75.46771 615.000
75.48817 720.000
75.50863 771.000
75.52909 798.000
75.54955 846.000
75.57001 920.000
75.59046 974.000
75.61092 958.000
75.63138 854.000
75.65184 789.000
75.67230 711.000
75.69276 684.000
75.71322 622.000
75.73367 591.000
75.75413 603.000
75.77459 655.000
75.79505 651.000
75.81551 605.000
75.83597 564.000
75.85643 542.000
75.87689 535.000
75.89734 496.000
75.91780 440.000
75.93826 402.000
75.95872 397.000
75.97918 418.000
75.99964 369.000
76.02010 367.000
76.04055 366.000
76.06101 353.000
76.08147 352.000
76.10193 360.000
76.12239 338.000
76.14285 354.000
76.16331 328.000
76.18377 363.000
76.20422 357.000
76.22468 344.000
76.24514 343.000
76.26560 333.000
76.28606 319.000
76.30652 314.000
76.32698 311.000
76.34743 346.000
76.36789 351.000
76.38835 330.000
76.40881 353.000
76.42927 380.000
76.44973 349.000
76.47019 356.000
76.49065 349.000
76.51110 369.000
76.53156 352.000
76.55202 350.000
76.57248 337.000
76.59294 342.000
76.61340 389.000
76.63386 364.000
76.65431 371.000
76.67477 365.000
76.69523 366.000
76.71569 356.000
76.73615 348.000
76.75661 352.000
76.77707 350.000
76.79752 360.000
76.81798 404.000
76.83844 368.000
76.85890 352.000
76.87936 356.000
76.89982 365.000
76.92028 377.000
76.94074 353.000
76.96119 349.000
76.98165 388.000
77.00211 383.000
77.02257 412.000
77.04303 366.000
77.06349 394.000
77.08395 358.000
77.10440 334.000
77.12486 366.000
77.14532 395.000
77.16578 376.000
77.18624 374.000
77.20670 368.000
77.22716 361.000
77.24762 405.000
77.26807 376.000
77.28853 359.000
77.30899 419.000
77.32945 369.000
77.34991 389.000
77.37037 379.000
77.39083 390.000
77.41128 451.000
77.43174 437.000
77.45220 438.000
77.47266 464.000
77.49312 473.000
77.51358 489.000
77.53404 496.000
77.55450 573.000
77.57495 609.000
77.59541 604.000
77.61587 593.000
77.63633 576.000
77.65679 522.000
77.67725 529.000
77.69771 455.000
77.71816 462.000
77.73862 407.000
77.75908 437.000
77.77954 437.000
77.80000 468.000
77.82046 487.000
77.84092 481.000
77.86138 423.000
77.88183 420.000
77.90229 394.000
77.92275 359.000
77.94321 349.000
77.96367 362.000
77.98413 340.000
78.00459 329.000
78.02504 338.000
78.04550 318.000
78.06596 342.000
78.08642 359.000
78.10688 311.000
78.12734 312.000
78.14780 349.000
78.16826 329.000
78.18871 318.000
78.20917 305.000
78.22963 297.000
78.25009 317.000
78.27055 298.000
78.29101 284.000
78.31147 321.000
78.33192 294.000
78.35238 316.000
78.37284 331.000
78.39330 303.000
78.41376 323.000
78.43422 307.000
78.45468 302.000
78.47514 290.000
78.49559 317.000
78.51605 285.000
78.53651 321.000
78.55697 265.000
78.57743 279.000
78.59789 299.000
78.61835 304.000
78.63880 279.000
78.65926 307.000
78.67972 313.000
78.70018 300.000
78.72064 335.000
78.74110 283.000
78.76156 319.000
78.78201 284.000
78.80247 297.000
78.82293 302.000
78.84339 295.000
78.86385 294.000
78.88431 276.000
78.90477 291.000
78.92523 311.000
78.94568 283.000
78.96614 314.000
78.98660 304.000
79.00706 321.000
79.02752 310.000
79.04798 284.000
79.06844 298.000
79.08889 274.000
79.10935 276.000
79.12981 261.000
79.15027 276.000
79.17073 285.000
79.19119 296.000
79.21165 287.000
79.23211 297.000
79.25256 315.000
79.27302 271.000
79.29348 301.000
79.31394 308.000
79.33440 285.000
79.35486 281.000
79.37532 278.000
79.39577 323.000
79.41623 303.000
79.43669 301.000
79.45715 313.000
79.47761 328.000
79.49807 334.000
79.51853 298.000
79.53899 343.000
79.55944 327.000
79.57990 400.000
79.60036 409.000
79.62082 388.000
79.64128 480.000
79.66174 467.000
79.68220 501.000
79.70265 538.000
79.72311 625.000
79.74357 649.000
79.76403 724.000
79.78449 756.000
79.80495 835.000
79.82541 856.000
79.84587 868.000
79.86632 730.000
79.88678 722.000
79.90724 665.000
79.92770 668.000
79.94816 670.000
79.96862 619.000
79.98908 632.000
80.00953 646.000
